sample_idx,time_s,MLII,V5,record_id,annotation
0,0.0,-0.145,-0.065,100,
1,0.002777777777777778,-0.145,-0.065,100,
2,0.005555555555555556,-0.145,-0.065,100,
3,0.008333333333333333,-0.145,-0.065,100,
4,0.011111111111111112,-0.145,-0.065,100,
5,0.013888888888888888,-0.145,-0.065,100,
6,0.016666666666666666,-0.145,-0.065,100,
7,0.019444444444444445,-0.145,-0.065,100,
8,0.022222222222222223,-0.12,-0.08,100,
9,0.025,-0.135,-0.08,100,
10,0.027777777777777776,-0.145,-0.085,100,
11,0.030555555555555555,-0.15,-0.085,100,
12,0.03333333333333333,-0.16,-0.075,100,
13,0.03611111111111111,-0.155,-0.07,100,
14,0.03888888888888889,-0.16,-0.07,100,
15,0.041666666666666664,-0.175,-0.065,100,
16,0.044444444444444446,-0.18,-0.055,100,
17,0.04722222222222222,-0.185,-0.05,100,
18,0.05,-0.17,-0.05,100,+
19,0.05277777777777778,-0.155,-0.04,100,
20,0.05555555555555555,-0.175,-0.04,100,
21,0.058333333333333334,-0.18,-0.055,100,
22,0.06111111111111111,-0.19,-0.075,100,
23,0.06388888888888888,-0.18,-0.08,100,
24,0.06666666666666667,-0.155,-0.085,100,
25,0.06944444444444445,-0.135,-0.07,100,
26,0.07222222222222222,-0.155,-0.08,100,
27,0.075,-0.19,-0.08,100,
28,0.07777777777777778,-0.205,-0.09,100,
29,0.08055555555555556,-0.235,-0.095,100,
30,0.08333333333333333,-0.225,-0.09,100,
31,0.08611111111111111,-0.245,-0.095,100,
32,0.08888888888888889,-0.25,-0.11,100,
33,0.09166666666666666,-0.26,-0.12,100,
34,0.09444444444444444,-0.275,-0.145,100,
35,0.09722222222222222,-0.275,-0.135,100,
36,0.1,-0.275,-0.105,100,
37,0.10277777777777777,-0.265,-0.095,100,
38,0.10555555555555556,-0.255,-0.105,100,
39,0.10833333333333334,-0.265,-0.12,100,
40,0.1111111111111111,-0.275,-0.135,100,
41,0.11388888888888889,-0.29,-0.125,100,
42,0.11666666666666667,-0.29,-0.125,100,
43,0.11944444444444445,-0.29,-0.115,100,
44,0.12222222222222222,-0.29,-0.115,100,
45,0.125,-0.285,-0.125,100,
46,0.12777777777777777,-0.295,-0.14,100,
47,0.13055555555555556,-0.305,-0.14,100,
48,0.13333333333333333,-0.285,-0.13,100,
49,0.1361111111111111,-0.275,-0.125,100,
50,0.1388888888888889,-0.275,-0.14,100,
51,0.14166666666666666,-0.28,-0.145,100,
52,0.14444444444444443,-0.285,-0.15,100,
53,0.14722222222222223,-0.305,-0.15,100,
54,0.15,-0.29,-0.13,100,
55,0.1527777777777778,-0.3,-0.115,100,
56,0.15555555555555556,-0.28,-0.125,100,
57,0.15833333333333333,-0.29,-0.135,100,
58,0.16111111111111112,-0.3,-0.16,100,
59,0.1638888888888889,-0.315,-0.195,100,
60,0.16666666666666666,-0.32,-0.2,100,
61,0.16944444444444445,-0.335,-0.205,100,
62,0.17222222222222222,-0.36,-0.225,100,
63,0.175,-0.385,-0.255,100,
64,0.17777777777777778,-0.385,-0.3,100,
65,0.18055555555555555,-0.405,-0.29,100,
66,0.18333333333333332,-0.455,-0.235,100,
67,0.18611111111111112,-0.485,-0.13,100,
68,0.18888888888888888,-0.485,-0.035,100,
69,0.19166666666666668,-0.425,0.05,100,
70,0.19444444444444445,-0.33,0.12,100,
71,0.19722222222222222,-0.22,0.2,100,
72,0.2,-0.07,0.31,100,
73,0.20277777777777778,0.12,0.435,100,
74,0.20555555555555555,0.375,0.535,100,
75,0.20833333333333334,0.62,0.58,100,
76,0.2111111111111111,0.78,0.475,100,
77,0.21388888888888888,0.84,0.21,100,N
78,0.21666666666666667,0.765,-0.085,100,
79,0.21944444444444444,0.52,-0.23,100,
80,0.2222222222222222,0.17,-0.25,100,
81,0.225,-0.165,-0.215,100,
82,0.22777777777777777,-0.365,-0.18,100,
83,0.23055555555555557,-0.435,-0.185,100,
84,0.23333333333333334,-0.425,-0.16,100,
85,0.2361111111111111,-0.37,-0.15,100,
86,0.2388888888888889,-0.33,-0.15,100,
87,0.24166666666666667,-0.325,-0.18,100,
88,0.24444444444444444,-0.335,-0.18,100,
89,0.24722222222222223,-0.345,-0.16,100,
90,0.25,-0.33,-0.165,100,
91,0.25277777777777777,-0.325,-0.17,100,
92,0.25555555555555554,-0.315,-0.165,100,
93,0.25833333333333336,-0.31,-0.185,100,
94,0.2611111111111111,-0.32,-0.185,100,
95,0.2638888888888889,-0.335,-0.185,100,
96,0.26666666666666666,-0.34,-0.17,100,
97,0.26944444444444443,-0.325,-0.16,100,
98,0.2722222222222222,-0.345,-0.155,100,
99,0.275,-0.335,-0.175,100,
100,0.2777777777777778,-0.33,-0.195,100,
101,0.28055555555555556,-0.335,-0.185,100,
102,0.2833333333333333,-0.33,-0.185,100,
103,0.2861111111111111,-0.325,-0.175,100,
104,0.28888888888888886,-0.33,-0.175,100,
105,0.2916666666666667,-0.33,-0.195,100,
106,0.29444444444444445,-0.345,-0.19,100,
107,0.2972222222222222,-0.355,-0.18,100,
108,0.3,-0.335,-0.165,100,
109,0.30277777777777776,-0.325,-0.17,100,
110,0.3055555555555556,-0.305,-0.17,100,
111,0.30833333333333335,-0.32,-0.17,100,
112,0.3111111111111111,-0.32,-0.19,100,
113,0.3138888888888889,-0.33,-0.185,100,
114,0.31666666666666665,-0.34,-0.18,100,
115,0.3194444444444444,-0.335,-0.17,100,
116,0.32222222222222224,-0.34,-0.175,100,
117,0.325,-0.345,-0.19,100,
118,0.3277777777777778,-0.355,-0.2,100,
119,0.33055555555555555,-0.355,-0.195,100,
120,0.3333333333333333,-0.34,-0.185,100,
121,0.33611111111111114,-0.33,-0.17,100,
122,0.3388888888888889,-0.33,-0.17,100,
123,0.3416666666666667,-0.33,-0.185,100,
124,0.34444444444444444,-0.34,-0.195,100,
125,0.3472222222222222,-0.35,-0.175,100,
126,0.35,-0.325,-0.2,100,
127,0.3527777777777778,-0.325,-0.185,100,
128,0.35555555555555557,-0.33,-0.18,100,
129,0.35833333333333334,-0.33,-0.185,100,
130,0.3611111111111111,-0.335,-0.205,100,
131,0.3638888888888889,-0.335,-0.19,100,
132,0.36666666666666664,-0.34,-0.18,100,
133,0.36944444444444446,-0.33,-0.185,100,
134,0.37222222222222223,-0.34,-0.2,100,
135,0.375,-0.35,-0.215,100,
136,0.37777777777777777,-0.355,-0.205,100,
137,0.38055555555555554,-0.35,-0.21,100,
138,0.38333333333333336,-0.345,-0.2,100,
139,0.3861111111111111,-0.33,-0.185,100,
140,0.3888888888888889,-0.32,-0.205,100,
141,0.39166666666666666,-0.335,-0.2,100,
142,0.39444444444444443,-0.33,-0.21,100,
143,0.3972222222222222,-0.345,-0.205,100,
144,0.4,-0.33,-0.185,100,
145,0.4027777777777778,-0.335,-0.185,100,
146,0.40555555555555556,-0.335,-0.2,100,
147,0.4083333333333333,-0.345,-0.215,100,
148,0.4111111111111111,-0.345,-0.225,100,
149,0.41388888888888886,-0.355,-0.22,100,
150,0.4166666666666667,-0.34,-0.2,100,
151,0.41944444444444445,-0.34,-0.2,100,
152,0.4222222222222222,-0.335,-0.215,100,
153,0.425,-0.33,-0.225,100,
154,0.42777777777777776,-0.35,-0.235,100,
155,0.4305555555555556,-0.35,-0.245,100,
156,0.43333333333333335,-0.345,-0.24,100,
157,0.4361111111111111,-0.335,-0.24,100,
158,0.4388888888888889,-0.335,-0.24,100,
159,0.44166666666666665,-0.335,-0.245,100,
160,0.4444444444444444,-0.35,-0.26,100,
161,0.44722222222222224,-0.355,-0.26,100,
162,0.45,-0.355,-0.265,100,
163,0.4527777777777778,-0.345,-0.265,100,
164,0.45555555555555555,-0.345,-0.28,100,
165,0.4583333333333333,-0.335,-0.285,100,
166,0.46111111111111114,-0.35,-0.295,100,
167,0.4638888888888889,-0.36,-0.295,100,
168,0.4666666666666667,-0.36,-0.3,100,
169,0.46944444444444444,-0.36,-0.29,100,
170,0.4722222222222222,-0.365,-0.3,100,
171,0.475,-0.36,-0.315,100,
172,0.4777777777777778,-0.37,-0.315,100,
173,0.48055555555555557,-0.385,-0.315,100,
174,0.48333333333333334,-0.37,-0.315,100,
175,0.4861111111111111,-0.36,-0.31,100,
176,0.4888888888888889,-0.355,-0.31,100,
177,0.49166666666666664,-0.36,-0.325,100,
178,0.49444444444444446,-0.375,-0.33,100,
179,0.49722222222222223,-0.375,-0.325,100,
180,0.5,-0.365,-0.315,100,
181,0.5027777777777778,-0.365,-0.305,100,
182,0.5055555555555555,-0.36,-0.305,100,
183,0.5083333333333333,-0.36,-0.29,100,
184,0.5111111111111111,-0.365,-0.29,100,
185,0.5138888888888888,-0.37,-0.275,100,
186,0.5166666666666667,-0.355,-0.27,100,
187,0.5194444444444445,-0.33,-0.245,100,
188,0.5222222222222223,-0.325,-0.24,100,
189,0.525,-0.325,-0.25,100,
190,0.5277777777777778,-0.335,-0.25,100,
191,0.5305555555555556,-0.34,-0.235,100,
192,0.5333333333333333,-0.315,-0.22,100,
193,0.5361111111111111,-0.3,-0.195,100,
194,0.5388888888888889,-0.3,-0.19,100,
195,0.5416666666666666,-0.29,-0.19,100,
196,0.5444444444444444,-0.295,-0.19,100,
197,0.5472222222222223,-0.29,-0.18,100,
198,0.55,-0.285,-0.16,100,
199,0.5527777777777778,-0.275,-0.145,100,
200,0.5555555555555556,-0.255,-0.15,100,
201,0.5583333333333333,-0.25,-0.16,100,
202,0.5611111111111111,-0.25,-0.16,100,
203,0.5638888888888889,-0.265,-0.155,100,
204,0.5666666666666667,-0.255,-0.145,100,
205,0.5694444444444444,-0.245,-0.14,100,
206,0.5722222222222222,-0.23,-0.16,100,
207,0.575,-0.245,-0.15,100,
208,0.5777777777777777,-0.245,-0.175,100,
209,0.5805555555555556,-0.255,-0.17,100,
210,0.5833333333333334,-0.255,-0.16,100,
211,0.5861111111111111,-0.24,-0.16,100,
212,0.5888888888888889,-0.25,-0.15,100,
213,0.5916666666666667,-0.255,-0.155,100,
214,0.5944444444444444,-0.245,-0.16,100,
215,0.5972222222222222,-0.255,-0.17,100,
216,0.6,-0.25,-0.155,100,
217,0.6027777777777777,-0.25,-0.155,100,
218,0.6055555555555555,-0.265,-0.15,100,
219,0.6083333333333333,-0.26,-0.165,100,
220,0.6111111111111112,-0.26,-0.175,100,
221,0.6138888888888889,-0.265,-0.165,100,
222,0.6166666666666667,-0.27,-0.165,100,
223,0.6194444444444445,-0.265,-0.16,100,
224,0.6222222222222222,-0.26,-0.16,100,
225,0.625,-0.275,-0.18,100,
226,0.6277777777777778,-0.28,-0.175,100,
227,0.6305555555555555,-0.29,-0.185,100,
228,0.6333333333333333,-0.275,-0.165,100,
229,0.6361111111111111,-0.27,-0.15,100,
230,0.6388888888888888,-0.26,-0.15,100,
231,0.6416666666666667,-0.28,-0.17,100,
232,0.6444444444444445,-0.28,-0.185,100,
233,0.6472222222222223,-0.285,-0.195,100,
234,0.65,-0.275,-0.19,100,
235,0.6527777777777778,-0.275,-0.19,100,
236,0.6555555555555556,-0.265,-0.185,100,
237,0.6583333333333333,-0.27,-0.19,100,
238,0.6611111111111111,-0.285,-0.21,100,
239,0.6638888888888889,-0.29,-0.195,100,
240,0.6666666666666666,-0.28,-0.19,100,
241,0.6694444444444444,-0.275,-0.18,100,
242,0.6722222222222223,-0.285,-0.205,100,
243,0.675,-0.28,-0.215,100,
244,0.6777777777777778,-0.3,-0.225,100,
245,0.6805555555555556,-0.3,-0.21,100,
246,0.6833333333333333,-0.305,-0.205,100,
247,0.6861111111111111,-0.295,-0.195,100,
248,0.6888888888888889,-0.3,-0.2,100,
249,0.6916666666666667,-0.31,-0.195,100,
250,0.6944444444444444,-0.31,-0.21,100,
251,0.6972222222222222,-0.305,-0.215,100,
252,0.7,-0.295,-0.205,100,
253,0.7027777777777777,-0.285,-0.185,100,
254,0.7055555555555556,-0.285,-0.195,100,
255,0.7083333333333334,-0.29,-0.195,100,
256,0.7111111111111111,-0.295,-0.22,100,
257,0.7138888888888889,-0.31,-0.22,100,
258,0.7166666666666667,-0.29,-0.21,100,
259,0.7194444444444444,-0.295,-0.215,100,
260,0.7222222222222222,-0.3,-0.22,100,
261,0.725,-0.305,-0.22,100,
262,0.7277777777777777,-0.31,-0.225,100,
263,0.7305555555555555,-0.325,-0.21,100,
264,0.7333333333333333,-0.31,-0.2,100,
265,0.7361111111111112,-0.3,-0.21,100,
266,0.7388888888888889,-0.29,-0.225,100,
267,0.7416666666666667,-0.31,-0.23,100,
268,0.7444444444444445,-0.325,-0.225,100,
269,0.7472222222222222,-0.33,-0.22,100,
270,0.75,-0.315,-0.23,100,
271,0.7527777777777778,-0.3,-0.21,100,
272,0.7555555555555555,-0.305,-0.215,100,
273,0.7583333333333333,-0.31,-0.215,100,
274,0.7611111111111111,-0.32,-0.23,100,
275,0.7638888888888888,-0.33,-0.215,100,
276,0.7666666666666667,-0.325,-0.22,100,
277,0.7694444444444445,-0.315,-0.205,100,
278,0.7722222222222223,-0.31,-0.205,100,
279,0.775,-0.305,-0.21,100,
280,0.7777777777777778,-0.305,-0.215,100,
281,0.7805555555555556,-0.31,-0.225,100,
282,0.7833333333333333,-0.3,-0.215,100,
283,0.7861111111111111,-0.305,-0.215,100,
284,0.7888888888888889,-0.29,-0.215,100,
285,0.7916666666666666,-0.3,-0.225,100,
286,0.7944444444444444,-0.3,-0.225,100,
287,0.7972222222222223,-0.305,-0.225,100,
288,0.8,-0.305,-0.205,100,
289,0.8027777777777778,-0.29,-0.195,100,
290,0.8055555555555556,-0.28,-0.21,100,
291,0.8083333333333333,-0.295,-0.21,100,
292,0.8111111111111111,-0.305,-0.215,100,
293,0.8138888888888889,-0.315,-0.235,100,
294,0.8166666666666667,-0.305,-0.23,100,
295,0.8194444444444444,-0.295,-0.22,100,
296,0.8222222222222222,-0.29,-0.22,100,
297,0.825,-0.28,-0.23,100,
298,0.8277777777777777,-0.27,-0.225,100,
299,0.8305555555555556,-0.275,-0.23,100,
300,0.8333333333333334,-0.275,-0.215,100,
301,0.8361111111111111,-0.27,-0.195,100,
302,0.8388888888888889,-0.25,-0.195,100,
303,0.8416666666666667,-0.25,-0.19,100,
304,0.8444444444444444,-0.255,-0.2,100,
305,0.8472222222222222,-0.225,-0.195,100,
306,0.85,-0.22,-0.18,100,
307,0.8527777777777777,-0.205,-0.17,100,
308,0.8555555555555555,-0.2,-0.18,100,
309,0.8583333333333333,-0.205,-0.175,100,
310,0.8611111111111112,-0.215,-0.195,100,
311,0.8638888888888889,-0.23,-0.195,100,
312,0.8666666666666667,-0.22,-0.17,100,
313,0.8694444444444445,-0.225,-0.175,100,
314,0.8722222222222222,-0.225,-0.175,100,
315,0.875,-0.225,-0.18,100,
316,0.8777777777777778,-0.23,-0.185,100,
317,0.8805555555555555,-0.235,-0.185,100,
318,0.8833333333333333,-0.24,-0.175,100,
319,0.8861111111111111,-0.235,-0.175,100,
320,0.8888888888888888,-0.22,-0.175,100,
321,0.8916666666666667,-0.21,-0.19,100,
322,0.8944444444444445,-0.205,-0.205,100,
323,0.8972222222222223,-0.245,-0.2,100,
324,0.9,-0.285,-0.205,100,
325,0.9027777777777778,-0.285,-0.205,100,
326,0.9055555555555556,-0.3,-0.215,100,
327,0.9083333333333333,-0.31,-0.215,100,
328,0.9111111111111111,-0.33,-0.225,100,
329,0.9138888888888889,-0.33,-0.215,100,
330,0.9166666666666666,-0.325,-0.21,100,
331,0.9194444444444444,-0.315,-0.2,100,
332,0.9222222222222223,-0.32,-0.215,100,
333,0.925,-0.315,-0.225,100,
334,0.9277777777777778,-0.325,-0.245,100,
335,0.9305555555555556,-0.34,-0.245,100,
336,0.9333333333333333,-0.345,-0.25,100,
337,0.9361111111111111,-0.34,-0.225,100,
338,0.9388888888888889,-0.34,-0.23,100,
339,0.9416666666666667,-0.35,-0.235,100,
340,0.9444444444444444,-0.345,-0.24,100,
341,0.9472222222222222,-0.355,-0.235,100,
342,0.95,-0.33,-0.235,100,
343,0.9527777777777777,-0.335,-0.22,100,
344,0.9555555555555556,-0.33,-0.23,100,
345,0.9583333333333334,-0.32,-0.24,100,
346,0.9611111111111111,-0.345,-0.24,100,
347,0.9638888888888889,-0.355,-0.245,100,
348,0.9666666666666667,-0.34,-0.225,100,
349,0.9694444444444444,-0.33,-0.225,100,
350,0.9722222222222222,-0.325,-0.235,100,
351,0.975,-0.33,-0.25,100,
352,0.9777777777777777,-0.35,-0.27,100,
353,0.9805555555555555,-0.365,-0.28,100,
354,0.9833333333333333,-0.36,-0.29,100,
355,0.9861111111111112,-0.38,-0.3,100,
356,0.9888888888888889,-0.425,-0.33,100,
357,0.9916666666666667,-0.445,-0.36,100,
358,0.9944444444444445,-0.475,-0.355,100,
359,0.9972222222222222,-0.51,-0.305,100,
360,1.0,-0.535,-0.205,100,
361,1.0027777777777778,-0.505,-0.08,100,
362,1.0055555555555555,-0.415,0.015,100,
363,1.0083333333333333,-0.3,0.065,100,
364,1.011111111111111,-0.16,0.115,100,
365,1.0138888888888888,-0.015,0.19,100,
366,1.0166666666666666,0.235,0.3,100,
367,1.0194444444444444,0.49,0.41,100,
368,1.0222222222222221,0.72,0.495,100,
369,1.025,0.875,0.485,100,
370,1.0277777777777777,0.94,0.36,100,N
371,1.0305555555555554,0.905,0.105,100,
372,1.0333333333333334,0.755,-0.165,100,
373,1.0361111111111112,0.49,-0.35,100,
374,1.038888888888889,0.165,-0.45,100,
375,1.0416666666666667,-0.11,-0.47,100,
376,1.0444444444444445,-0.27,-0.45,100,
377,1.0472222222222223,-0.39,-0.395,100,
378,1.05,-0.45,-0.345,100,
379,1.0527777777777778,-0.475,-0.31,100,
380,1.0555555555555556,-0.455,-0.295,100,
381,1.0583333333333333,-0.425,-0.285,100,
382,1.0611111111111111,-0.39,-0.295,100,
383,1.0638888888888889,-0.39,-0.295,100,
384,1.0666666666666667,-0.385,-0.28,100,
385,1.0694444444444444,-0.39,-0.285,100,
386,1.0722222222222222,-0.38,-0.285,100,
387,1.075,-0.38,-0.285,100,
388,1.0777777777777777,-0.38,-0.29,100,
389,1.0805555555555555,-0.395,-0.275,100,
390,1.0833333333333333,-0.385,-0.275,100,
391,1.086111111111111,-0.385,-0.275,100,
392,1.0888888888888888,-0.385,-0.27,100,
393,1.0916666666666666,-0.375,-0.285,100,
394,1.0944444444444446,-0.395,-0.295,100,
395,1.0972222222222223,-0.41,-0.29,100,
396,1.1,-0.41,-0.275,100,
397,1.1027777777777779,-0.4,-0.265,100,
398,1.1055555555555556,-0.395,-0.265,100,
399,1.1083333333333334,-0.39,-0.275,100,
400,1.1111111111111112,-0.405,-0.295,100,
401,1.113888888888889,-0.395,-0.29,100,
402,1.1166666666666667,-0.385,-0.285,100,
403,1.1194444444444445,-0.375,-0.27,100,
404,1.1222222222222222,-0.39,-0.265,100,
405,1.125,-0.39,-0.275,100,
406,1.1277777777777778,-0.405,-0.28,100,
407,1.1305555555555555,-0.41,-0.28,100,
408,1.1333333333333333,-0.41,-0.27,100,
409,1.136111111111111,-0.39,-0.265,100,
410,1.1388888888888888,-0.39,-0.27,100,
411,1.1416666666666666,-0.395,-0.27,100,
412,1.1444444444444444,-0.405,-0.28,100,
413,1.1472222222222221,-0.415,-0.27,100,
414,1.15,-0.4,-0.265,100,
415,1.1527777777777777,-0.41,-0.265,100,
416,1.1555555555555554,-0.405,-0.265,100,
417,1.1583333333333334,-0.41,-0.27,100,
418,1.1611111111111112,-0.415,-0.285,100,
419,1.163888888888889,-0.41,-0.285,100,
420,1.1666666666666667,-0.4,-0.265,100,
421,1.1694444444444445,-0.4,-0.265,100,
422,1.1722222222222223,-0.395,-0.255,100,
423,1.175,-0.39,-0.275,100,
424,1.1777777777777778,-0.405,-0.275,100,
425,1.1805555555555556,-0.41,-0.28,100,
426,1.1833333333333333,-0.39,-0.27,100,
427,1.1861111111111111,-0.39,-0.265,100,
428,1.1888888888888889,-0.385,-0.275,100,
429,1.1916666666666667,-0.385,-0.285,100,
430,1.1944444444444444,-0.41,-0.28,100,
431,1.1972222222222222,-0.405,-0.28,100,
432,1.2,-0.395,-0.275,100,
433,1.2027777777777777,-0.39,-0.275,100,
434,1.2055555555555555,-0.375,-0.275,100,
435,1.2083333333333333,-0.39,-0.285,100,
436,1.211111111111111,-0.395,-0.295,100,
437,1.2138888888888888,-0.41,-0.295,100,
438,1.2166666666666666,-0.4,-0.275,100,
439,1.2194444444444446,-0.39,-0.275,100,
440,1.2222222222222223,-0.39,-0.285,100,
441,1.225,-0.385,-0.29,100,
442,1.2277777777777779,-0.405,-0.315,100,
443,1.2305555555555556,-0.415,-0.315,100,
444,1.2333333333333334,-0.415,-0.305,100,
445,1.2361111111111112,-0.4,-0.29,100,
446,1.238888888888889,-0.395,-0.31,100,
447,1.2416666666666667,-0.405,-0.32,100,
448,1.2444444444444445,-0.415,-0.32,100,
449,1.2472222222222222,-0.42,-0.335,100,
450,1.25,-0.42,-0.33,100,
451,1.2527777777777778,-0.41,-0.325,100,
452,1.2555555555555555,-0.415,-0.345,100,
453,1.2583333333333333,-0.425,-0.35,100,
454,1.261111111111111,-0.42,-0.365,100,
455,1.2638888888888888,-0.435,-0.37,100,
456,1.2666666666666666,-0.43,-0.355,100,
457,1.2694444444444444,-0.43,-0.36,100,
458,1.2722222222222221,-0.42,-0.37,100,
459,1.275,-0.43,-0.39,100,
460,1.2777777777777777,-0.45,-0.395,100,
461,1.2805555555555554,-0.455,-0.4,100,
462,1.2833333333333334,-0.45,-0.39,100,
463,1.2861111111111112,-0.435,-0.385,100,
464,1.288888888888889,-0.445,-0.39,100,
465,1.2916666666666667,-0.45,-0.4,100,
466,1.2944444444444445,-0.455,-0.41,100,
467,1.2972222222222223,-0.47,-0.42,100,
468,1.3,-0.46,-0.405,100,
469,1.3027777777777778,-0.455,-0.41,100,
470,1.3055555555555556,-0.45,-0.41,100,
471,1.3083333333333333,-0.455,-0.4,100,
472,1.3111111111111111,-0.47,-0.405,100,
473,1.3138888888888889,-0.475,-0.39,100,
474,1.3166666666666667,-0.46,-0.385,100,
475,1.3194444444444444,-0.45,-0.365,100,
476,1.3222222222222222,-0.445,-0.355,100,
477,1.325,-0.44,-0.345,100,
478,1.3277777777777777,-0.435,-0.355,100,
479,1.3305555555555555,-0.44,-0.33,100,
480,1.3333333333333333,-0.41,-0.295,100,
481,1.336111111111111,-0.395,-0.275,100,
482,1.3388888888888888,-0.37,-0.27,100,
483,1.3416666666666666,-0.365,-0.26,100,
484,1.3444444444444446,-0.36,-0.265,100,
485,1.3472222222222223,-0.365,-0.265,100,
486,1.35,-0.34,-0.245,100,
487,1.3527777777777779,-0.325,-0.225,100,
488,1.3555555555555556,-0.315,-0.21,100,
489,1.3583333333333334,-0.32,-0.215,100,
490,1.3611111111111112,-0.33,-0.215,100,
491,1.363888888888889,-0.33,-0.205,100,
492,1.3666666666666667,-0.32,-0.195,100,
493,1.3694444444444445,-0.31,-0.185,100,
494,1.3722222222222222,-0.3,-0.185,100,
495,1.375,-0.3,-0.195,100,
496,1.3777777777777778,-0.32,-0.195,100,
497,1.3805555555555555,-0.32,-0.195,100,
498,1.3833333333333333,-0.315,-0.185,100,
499,1.386111111111111,-0.305,-0.17,100,
500,1.3888888888888888,-0.305,-0.185,100,
501,1.3916666666666666,-0.295,-0.195,100,
502,1.3944444444444444,-0.32,-0.195,100,
503,1.3972222222222221,-0.33,-0.195,100,
504,1.4,-0.305,-0.185,100,
505,1.4027777777777777,-0.31,-0.175,100,
506,1.4055555555555554,-0.3,-0.175,100,
507,1.4083333333333334,-0.3,-0.185,100,
508,1.4111111111111112,-0.32,-0.195,100,
509,1.413888888888889,-0.325,-0.195,100,
510,1.4166666666666667,-0.31,-0.195,100,
511,1.4194444444444445,-0.305,-0.18,100,
512,1.4222222222222223,-0.315,-0.185,100,
513,1.425,-0.305,-0.19,100,
514,1.4277777777777778,-0.315,-0.195,100,
515,1.4305555555555556,-0.315,-0.195,100,
516,1.4333333333333333,-0.31,-0.19,100,
517,1.4361111111111111,-0.295,-0.185,100,
518,1.4388888888888889,-0.29,-0.185,100,
519,1.4416666666666667,-0.305,-0.19,100,
520,1.4444444444444444,-0.31,-0.2,100,
521,1.4472222222222222,-0.32,-0.215,100,
522,1.45,-0.315,-0.195,100,
523,1.4527777777777777,-0.3,-0.185,100,
524,1.4555555555555555,-0.315,-0.185,100,
525,1.4583333333333333,-0.315,-0.185,100,
526,1.461111111111111,-0.315,-0.2,100,
527,1.4638888888888888,-0.33,-0.205,100,
528,1.4666666666666666,-0.315,-0.19,100,
529,1.4694444444444446,-0.32,-0.19,100,
530,1.4722222222222223,-0.315,-0.2,100,
531,1.475,-0.325,-0.2,100,
532,1.4777777777777779,-0.335,-0.195,100,
533,1.4805555555555556,-0.34,-0.22,100,
534,1.4833333333333334,-0.335,-0.205,100,
535,1.4861111111111112,-0.335,-0.19,100,
536,1.488888888888889,-0.33,-0.2,100,
537,1.4916666666666667,-0.325,-0.22,100,
538,1.4944444444444445,-0.345,-0.23,100,
539,1.4972222222222222,-0.35,-0.21,100,
540,1.5,-0.345,-0.205,100,
541,1.5027777777777778,-0.335,-0.2,100,
542,1.5055555555555555,-0.33,-0.195,100,
543,1.5083333333333333,-0.33,-0.22,100,
544,1.511111111111111,-0.345,-0.225,100,
545,1.5138888888888888,-0.345,-0.225,100,
546,1.5166666666666666,-0.345,-0.215,100,
547,1.5194444444444444,-0.32,-0.205,100,
548,1.5222222222222221,-0.33,-0.205,100,
549,1.525,-0.335,-0.215,100,
550,1.5277777777777777,-0.34,-0.225,100,
551,1.5305555555555554,-0.355,-0.22,100,
552,1.5333333333333334,-0.335,-0.225,100,
553,1.5361111111111112,-0.33,-0.195,100,
554,1.538888888888889,-0.33,-0.215,100,
555,1.5416666666666667,-0.335,-0.22,100,
556,1.5444444444444445,-0.355,-0.215,100,
557,1.5472222222222223,-0.36,-0.225,100,
558,1.55,-0.355,-0.215,100,
559,1.5527777777777778,-0.35,-0.21,100,
560,1.5555555555555556,-0.34,-0.21,100,
561,1.5583333333333333,-0.345,-0.225,100,
562,1.5611111111111111,-0.345,-0.23,100,
563,1.5638888888888889,-0.345,-0.22,100,
564,1.5666666666666667,-0.345,-0.21,100,
565,1.5694444444444444,-0.33,-0.205,100,
566,1.5722222222222222,-0.33,-0.2,100,
567,1.575,-0.335,-0.205,100,
568,1.5777777777777777,-0.345,-0.22,100,
569,1.5805555555555555,-0.35,-0.23,100,
570,1.5833333333333333,-0.35,-0.215,100,
571,1.586111111111111,-0.34,-0.205,100,
572,1.5888888888888888,-0.33,-0.2,100,
573,1.5916666666666666,-0.345,-0.23,100,
574,1.5944444444444446,-0.345,-0.22,100,
575,1.5972222222222223,-0.355,-0.215,100,
576,1.6,-0.35,-0.205,100,
577,1.6027777777777779,-0.34,-0.2,100,
578,1.6055555555555556,-0.33,-0.205,100,
579,1.6083333333333334,-0.34,-0.22,100,
580,1.6111111111111112,-0.34,-0.22,100,
581,1.613888888888889,-0.34,-0.225,100,
582,1.6166666666666667,-0.33,-0.205,100,
583,1.6194444444444445,-0.335,-0.2,100,
584,1.6222222222222222,-0.33,-0.2,100,
585,1.625,-0.335,-0.21,100,
586,1.6277777777777778,-0.345,-0.23,100,
587,1.6305555555555555,-0.345,-0.215,100,
588,1.6333333333333333,-0.34,-0.2,100,
589,1.636111111111111,-0.33,-0.2,100,
590,1.6388888888888888,-0.315,-0.205,100,
591,1.6416666666666666,-0.295,-0.21,100,
592,1.6444444444444444,-0.3,-0.215,100,
593,1.6472222222222221,-0.295,-0.22,100,
594,1.65,-0.285,-0.205,100,
595,1.6527777777777777,-0.275,-0.2,100,
596,1.6555555555555554,-0.265,-0.195,100,
597,1.6583333333333334,-0.265,-0.205,100,
598,1.6611111111111112,-0.265,-0.205,100,
599,1.663888888888889,-0.255,-0.205,100,
600,1.6666666666666667,-0.25,-0.18,100,
601,1.6694444444444445,-0.24,-0.17,100,
602,1.6722222222222223,-0.225,-0.19,100,
603,1.675,-0.215,-0.19,100,
604,1.6777777777777778,-0.24,-0.2,100,
605,1.6805555555555556,-0.245,-0.185,100,
606,1.6833333333333333,-0.24,-0.165,100,
607,1.6861111111111111,-0.245,-0.145,100,
608,1.6888888888888889,-0.235,-0.145,100,
609,1.6916666666666667,-0.245,-0.17,100,
610,1.6944444444444444,-0.25,-0.175,100,
611,1.6972222222222222,-0.275,-0.17,100,
612,1.7,-0.275,-0.165,100,
613,1.7027777777777777,-0.265,-0.15,100,
614,1.7055555555555555,-0.25,-0.16,100,
615,1.7083333333333333,-0.225,-0.175,100,
616,1.711111111111111,-0.22,-0.19,100,
617,1.7138888888888888,-0.23,-0.19,100,
618,1.7166666666666666,-0.265,-0.185,100,
619,1.7194444444444446,-0.27,-0.185,100,
620,1.7222222222222223,-0.28,-0.175,100,
621,1.725,-0.285,-0.195,100,
622,1.7277777777777779,-0.305,-0.215,100,
623,1.7305555555555556,-0.32,-0.205,100,
624,1.7333333333333334,-0.34,-0.2,100,
625,1.7361111111111112,-0.33,-0.195,100,
626,1.738888888888889,-0.335,-0.205,100,
627,1.7416666666666667,-0.335,-0.21,100,
628,1.7444444444444445,-0.355,-0.22,100,
629,1.7472222222222222,-0.37,-0.215,100,
630,1.75,-0.36,-0.21,100,
631,1.7527777777777778,-0.345,-0.205,100,
632,1.7555555555555555,-0.35,-0.2,100,
633,1.7583333333333333,-0.355,-0.21,100,
634,1.761111111111111,-0.365,-0.22,100,
635,1.7638888888888888,-0.375,-0.22,100,
636,1.7666666666666666,-0.38,-0.22,100,
637,1.7694444444444444,-0.37,-0.2,100,
638,1.7722222222222221,-0.365,-0.205,100,
639,1.775,-0.365,-0.215,100,
640,1.7777777777777777,-0.38,-0.225,100,
641,1.7805555555555554,-0.385,-0.22,100,
642,1.7833333333333334,-0.38,-0.215,100,
643,1.7861111111111112,-0.375,-0.205,100,
644,1.788888888888889,-0.355,-0.22,100,
645,1.7916666666666667,-0.37,-0.225,100,
646,1.7944444444444445,-0.39,-0.24,100,
647,1.7972222222222223,-0.405,-0.26,100,
648,1.8,-0.41,-0.28,100,
649,1.8027777777777778,-0.435,-0.3,100,
650,1.8055555555555556,-0.465,-0.345,100,
651,1.8083333333333333,-0.49,-0.375,100,
652,1.8111111111111111,-0.52,-0.345,100,
653,1.8138888888888889,-0.555,-0.26,100,
654,1.8166666666666667,-0.57,-0.125,100,
655,1.8194444444444444,-0.525,0.025,100,
656,1.8222222222222222,-0.405,0.145,100,
657,1.825,-0.25,0.26,100,
658,1.8277777777777777,-0.09,0.375,100,
659,1.8305555555555555,0.12,0.505,100,
660,1.8333333333333333,0.41,0.635,100,
661,1.836111111111111,0.69,0.705,100,
662,1.8388888888888888,0.885,0.61,100,N
663,1.8416666666666666,0.96,0.32,100,
664,1.8444444444444446,0.85,-0.045,100,
665,1.8472222222222223,0.52,-0.25,100,
666,1.85,0.05,-0.27,100,
667,1.8527777777777779,-0.32,-0.24,100,
668,1.8555555555555556,-0.5,-0.24,100,
669,1.8583333333333334,-0.505,-0.25,100,
670,1.8611111111111112,-0.445,-0.255,100,
671,1.863888888888889,-0.415,-0.245,100,
672,1.8666666666666667,-0.395,-0.245,100,
673,1.8694444444444445,-0.39,-0.245,100,
674,1.8722222222222222,-0.395,-0.255,100,
675,1.875,-0.39,-0.26,100,
676,1.8777777777777778,-0.395,-0.26,100,
677,1.8805555555555555,-0.405,-0.27,100,
678,1.8833333333333333,-0.395,-0.245,100,
679,1.886111111111111,-0.405,-0.245,100,
680,1.8888888888888888,-0.39,-0.25,100,
681,1.8916666666666666,-0.395,-0.265,100,
682,1.8944444444444444,-0.395,-0.27,100,
683,1.8972222222222221,-0.41,-0.27,100,
684,1.9,-0.405,-0.265,100,
685,1.9027777777777777,-0.4,-0.26,100,
686,1.9055555555555554,-0.4,-0.26,100,
687,1.9083333333333334,-0.415,-0.27,100,
688,1.9111111111111112,-0.405,-0.28,100,
689,1.913888888888889,-0.42,-0.28,100,
690,1.9166666666666667,-0.415,-0.27,100,
691,1.9194444444444445,-0.405,-0.255,100,
692,1.9222222222222223,-0.405,-0.265,100,
693,1.925,-0.42,-0.28,100,
694,1.9277777777777778,-0.42,-0.29,100,
695,1.9305555555555556,-0.435,-0.275,100,
696,1.9333333333333333,-0.42,-0.265,100,
697,1.9361111111111111,-0.41,-0.255,100,
698,1.9388888888888889,-0.41,-0.26,100,
699,1.9416666666666667,-0.405,-0.26,100,
700,1.9444444444444444,-0.425,-0.28,100,
701,1.9472222222222222,-0.43,-0.28,100,
702,1.95,-0.42,-0.265,100,
703,1.9527777777777777,-0.415,-0.26,100,
704,1.9555555555555555,-0.41,-0.255,100,
705,1.9583333333333333,-0.41,-0.26,100,
706,1.961111111111111,-0.425,-0.275,100,
707,1.9638888888888888,-0.42,-0.27,100,
708,1.9666666666666666,-0.4,-0.275,100,
709,1.9694444444444446,-0.395,-0.265,100,
710,1.9722222222222223,-0.4,-0.265,100,
711,1.975,-0.4,-0.27,100,
712,1.9777777777777779,-0.395,-0.28,100,
713,1.9805555555555556,-0.415,-0.285,100,
714,1.9833333333333334,-0.405,-0.28,100,
715,1.9861111111111112,-0.39,-0.255,100,
716,1.988888888888889,-0.4,-0.27,100,
717,1.9916666666666667,-0.4,-0.28,100,
718,1.9944444444444445,-0.415,-0.29,100,
719,1.9972222222222222,-0.425,-0.29,100,
720,2.0,-0.425,-0.27,100,
721,2.0027777777777778,-0.415,-0.27,100,
722,2.0055555555555555,-0.415,-0.285,100,
723,2.0083333333333333,-0.41,-0.3,100,
724,2.011111111111111,-0.425,-0.3,100,
725,2.013888888888889,-0.425,-0.3,100,
726,2.0166666666666666,-0.42,-0.295,100,
727,2.0194444444444444,-0.415,-0.275,100,
728,2.022222222222222,-0.4,-0.295,100,
729,2.025,-0.4,-0.3,100,
730,2.0277777777777777,-0.41,-0.31,100,
731,2.0305555555555554,-0.425,-0.31,100,
732,2.033333333333333,-0.41,-0.315,100,
733,2.036111111111111,-0.405,-0.31,100,
734,2.0388888888888888,-0.395,-0.31,100,
735,2.0416666666666665,-0.4,-0.335,100,
736,2.0444444444444443,-0.4,-0.345,100,
737,2.047222222222222,-0.405,-0.355,100,
738,2.05,-0.385,-0.35,100,
739,2.0527777777777776,-0.4,-0.345,100,
740,2.0555555555555554,-0.39,-0.36,100,
741,2.058333333333333,-0.39,-0.37,100,
742,2.061111111111111,-0.4,-0.375,100,
743,2.063888888888889,-0.415,-0.385,100,
744,2.066666666666667,-0.405,-0.37,100,
745,2.0694444444444446,-0.405,-0.37,100,
746,2.0722222222222224,-0.41,-0.385,100,
747,2.075,-0.415,-0.4,100,
748,2.077777777777778,-0.42,-0.415,100,
749,2.0805555555555557,-0.42,-0.405,100,
750,2.0833333333333335,-0.425,-0.41,100,
751,2.0861111111111112,-0.415,-0.39,100,
752,2.088888888888889,-0.415,-0.405,100,
753,2.091666666666667,-0.41,-0.41,100,
754,2.0944444444444446,-0.435,-0.425,100,
755,2.0972222222222223,-0.43,-0.42,100,
756,2.1,-0.435,-0.41,100,
757,2.102777777777778,-0.42,-0.405,100,
758,2.1055555555555556,-0.42,-0.4,100,
759,2.1083333333333334,-0.42,-0.4,100,
760,2.111111111111111,-0.42,-0.405,100,
761,2.113888888888889,-0.425,-0.385,100,
762,2.1166666666666667,-0.425,-0.365,100,
763,2.1194444444444445,-0.415,-0.345,100,
764,2.1222222222222222,-0.395,-0.335,100,
765,2.125,-0.395,-0.325,100,
766,2.1277777777777778,-0.39,-0.31,100,
767,2.1305555555555555,-0.375,-0.295,100,
768,2.1333333333333333,-0.36,-0.275,100,
769,2.136111111111111,-0.34,-0.255,100,
770,2.138888888888889,-0.335,-0.25,100,
771,2.1416666666666666,-0.33,-0.24,100,
772,2.1444444444444444,-0.335,-0.245,100,
773,2.147222222222222,-0.335,-0.23,100,
774,2.15,-0.325,-0.205,100,
775,2.1527777777777777,-0.32,-0.2,100,
776,2.1555555555555554,-0.305,-0.2,100,
777,2.158333333333333,-0.305,-0.205,100,
778,2.161111111111111,-0.315,-0.21,100,
779,2.1638888888888888,-0.31,-0.22,100,
780,2.1666666666666665,-0.305,-0.195,100,
781,2.1694444444444443,-0.3,-0.19,100,
782,2.172222222222222,-0.3,-0.2,100,
783,2.175,-0.3,-0.2,100,
784,2.1777777777777776,-0.31,-0.21,100,
785,2.1805555555555554,-0.31,-0.2,100,
786,2.183333333333333,-0.31,-0.19,100,
787,2.186111111111111,-0.315,-0.175,100,
788,2.188888888888889,-0.3,-0.2,100,
789,2.191666666666667,-0.305,-0.205,100,
790,2.1944444444444446,-0.315,-0.21,100,
791,2.1972222222222224,-0.32,-0.2,100,
792,2.2,-0.325,-0.2,100,
793,2.202777777777778,-0.31,-0.18,100,
794,2.2055555555555557,-0.305,-0.19,100,
795,2.2083333333333335,-0.305,-0.19,100,
796,2.2111111111111112,-0.32,-0.205,100,
797,2.213888888888889,-0.325,-0.205,100,
798,2.216666666666667,-0.305,-0.195,100,
799,2.2194444444444446,-0.31,-0.185,100,
800,2.2222222222222223,-0.295,-0.19,100,
801,2.225,-0.31,-0.19,100,
802,2.227777777777778,-0.325,-0.21,100,
803,2.2305555555555556,-0.33,-0.21,100,
804,2.2333333333333334,-0.32,-0.205,100,
805,2.236111111111111,-0.32,-0.205,100,
806,2.238888888888889,-0.32,-0.2,100,
807,2.2416666666666667,-0.325,-0.215,100,
808,2.2444444444444445,-0.35,-0.225,100,
809,2.2472222222222222,-0.35,-0.21,100,
810,2.25,-0.34,-0.21,100,
811,2.2527777777777778,-0.335,-0.21,100,
812,2.2555555555555555,-0.33,-0.215,100,
813,2.2583333333333333,-0.335,-0.225,100,
814,2.261111111111111,-0.34,-0.225,100,
815,2.263888888888889,-0.36,-0.23,100,
816,2.2666666666666666,-0.35,-0.21,100,
817,2.2694444444444444,-0.35,-0.21,100,
818,2.272222222222222,-0.355,-0.23,100,
819,2.275,-0.36,-0.25,100,
820,2.2777777777777777,-0.355,-0.25,100,
821,2.2805555555555554,-0.365,-0.245,100,
822,2.283333333333333,-0.355,-0.23,100,
823,2.286111111111111,-0.35,-0.215,100,
824,2.2888888888888888,-0.34,-0.23,100,
825,2.2916666666666665,-0.355,-0.24,100,
826,2.2944444444444443,-0.35,-0.245,100,
827,2.297222222222222,-0.365,-0.245,100,
828,2.3,-0.365,-0.24,100,
829,2.3027777777777776,-0.35,-0.215,100,
830,2.3055555555555554,-0.355,-0.225,100,
831,2.308333333333333,-0.35,-0.24,100,
832,2.311111111111111,-0.37,-0.24,100,
833,2.313888888888889,-0.38,-0.245,100,
834,2.316666666666667,-0.37,-0.24,100,
835,2.3194444444444446,-0.36,-0.23,100,
836,2.3222222222222224,-0.365,-0.235,100,
837,2.325,-0.36,-0.24,100,
838,2.327777777777778,-0.365,-0.23,100,
839,2.3305555555555557,-0.38,-0.25,100,
840,2.3333333333333335,-0.37,-0.225,100,
841,2.3361111111111112,-0.365,-0.215,100,
842,2.338888888888889,-0.35,-0.23,100,
843,2.341666666666667,-0.35,-0.24,100,
844,2.3444444444444446,-0.35,-0.25,100,
845,2.3472222222222223,-0.37,-0.265,100,
846,2.35,-0.365,-0.23,100,
847,2.352777777777778,-0.345,-0.22,100,
848,2.3555555555555556,-0.345,-0.235,100,
849,2.3583333333333334,-0.34,-0.225,100,
850,2.361111111111111,-0.355,-0.235,100,
851,2.363888888888889,-0.365,-0.235,100,
852,2.3666666666666667,-0.36,-0.225,100,
853,2.3694444444444445,-0.355,-0.225,100,
854,2.3722222222222222,-0.355,-0.215,100,
855,2.375,-0.355,-0.225,100,
856,2.3777777777777778,-0.375,-0.235,100,
857,2.3805555555555555,-0.385,-0.23,100,
858,2.3833333333333333,-0.355,-0.225,100,
859,2.386111111111111,-0.36,-0.225,100,
860,2.388888888888889,-0.355,-0.225,100,
861,2.3916666666666666,-0.36,-0.225,100,
862,2.3944444444444444,-0.36,-0.23,100,
863,2.397222222222222,-0.37,-0.23,100,
864,2.4,-0.36,-0.215,100,
865,2.4027777777777777,-0.345,-0.21,100,
866,2.4055555555555554,-0.355,-0.225,100,
867,2.408333333333333,-0.345,-0.24,100,
868,2.411111111111111,-0.345,-0.235,100,
869,2.4138888888888888,-0.345,-0.24,100,
870,2.4166666666666665,-0.34,-0.225,100,
871,2.4194444444444443,-0.31,-0.215,100,
872,2.422222222222222,-0.305,-0.22,100,
873,2.425,-0.305,-0.22,100,
874,2.4277777777777776,-0.31,-0.23,100,
875,2.4305555555555554,-0.305,-0.23,100,
876,2.433333333333333,-0.29,-0.205,100,
877,2.436111111111111,-0.285,-0.2,100,
878,2.438888888888889,-0.275,-0.205,100,
879,2.441666666666667,-0.28,-0.195,100,
880,2.4444444444444446,-0.28,-0.21,100,
881,2.4472222222222224,-0.275,-0.205,100,
882,2.45,-0.265,-0.19,100,
883,2.452777777777778,-0.255,-0.185,100,
884,2.4555555555555557,-0.245,-0.2,100,
885,2.4583333333333335,-0.26,-0.195,100,
886,2.4611111111111112,-0.265,-0.2,100,
887,2.463888888888889,-0.275,-0.19,100,
888,2.466666666666667,-0.28,-0.17,100,
889,2.4694444444444446,-0.265,-0.14,100,
890,2.4722222222222223,-0.27,-0.165,100,
891,2.475,-0.275,-0.165,100,
892,2.477777777777778,-0.28,-0.185,100,
893,2.4805555555555556,-0.275,-0.18,100,
894,2.4833333333333334,-0.28,-0.17,100,
895,2.486111111111111,-0.275,-0.15,100,
896,2.488888888888889,-0.265,-0.165,100,
897,2.4916666666666667,-0.255,-0.18,100,
898,2.4944444444444445,-0.24,-0.2,100,
899,2.4972222222222222,-0.26,-0.21,100,
900,2.5,-0.28,-0.21,100,
901,2.5027777777777778,-0.31,-0.185,100,
902,2.5055555555555555,-0.31,-0.19,100,
903,2.5083333333333333,-0.345,-0.2,100,
904,2.511111111111111,-0.36,-0.215,100,
905,2.513888888888889,-0.38,-0.22,100,
906,2.5166666666666666,-0.385,-0.21,100,
907,2.5194444444444444,-0.38,-0.195,100,
908,2.522222222222222,-0.37,-0.205,100,
909,2.525,-0.375,-0.22,100,
910,2.5277777777777777,-0.385,-0.225,100,
911,2.5305555555555554,-0.39,-0.23,100,
912,2.533333333333333,-0.395,-0.22,100,
913,2.536111111111111,-0.385,-0.21,100,
914,2.5388888888888888,-0.385,-0.21,100,
915,2.5416666666666665,-0.385,-0.23,100,
916,2.5444444444444443,-0.395,-0.235,100,
917,2.547222222222222,-0.405,-0.23,100,
918,2.55,-0.4,-0.225,100,
919,2.5527777777777776,-0.375,-0.215,100,
920,2.5555555555555554,-0.375,-0.22,100,
921,2.558333333333333,-0.39,-0.22,100,
922,2.561111111111111,-0.395,-0.23,100,
923,2.563888888888889,-0.415,-0.24,100,
924,2.566666666666667,-0.405,-0.22,100,
925,2.5694444444444446,-0.4,-0.225,100,
926,2.5722222222222224,-0.39,-0.235,100,
927,2.575,-0.405,-0.25,100,
928,2.577777777777778,-0.425,-0.28,100,
929,2.5805555555555557,-0.46,-0.305,100,
930,2.5833333333333335,-0.475,-0.325,100,
931,2.5861111111111112,-0.505,-0.345,100,
932,2.588888888888889,-0.51,-0.375,100,
933,2.591666666666667,-0.525,-0.415,100,
934,2.5944444444444446,-0.54,-0.425,100,
935,2.5972222222222223,-0.6,-0.385,100,
936,2.6,-0.645,-0.295,100,
937,2.602777777777778,-0.63,-0.18,100,
938,2.6055555555555556,-0.575,-0.065,100,
939,2.6083333333333334,-0.495,0.035,100,
940,2.611111111111111,-0.385,0.13,100,
941,2.613888888888889,-0.27,0.24,100,
942,2.6166666666666667,-0.115,0.37,100,
943,2.6194444444444445,0.09,0.495,100,
944,2.6222222222222222,0.37,0.61,100,
945,2.625,0.635,0.655,100,
946,2.6277777777777778,0.81,0.545,100,N
947,2.6305555555555555,0.86,0.23,100,
948,2.6333333333333333,0.77,-0.105,100,
949,2.636111111111111,0.475,-0.28,100,
950,2.638888888888889,0.065,-0.285,100,
951,2.6416666666666666,-0.305,-0.255,100,
952,2.6444444444444444,-0.5,-0.255,100,
953,2.647222222222222,-0.52,-0.26,100,
954,2.65,-0.475,-0.23,100,
955,2.6527777777777777,-0.41,-0.22,100,
956,2.6555555555555554,-0.39,-0.245,100,
957,2.658333333333333,-0.39,-0.255,100,
958,2.661111111111111,-0.4,-0.26,100,
959,2.6638888888888888,-0.41,-0.25,100,
960,2.6666666666666665,-0.405,-0.235,100,
961,2.6694444444444443,-0.385,-0.245,100,
962,2.672222222222222,-0.39,-0.245,100,
963,2.675,-0.395,-0.26,100,
964,2.6777777777777776,-0.405,-0.265,100,
965,2.6805555555555554,-0.41,-0.265,100,
966,2.683333333333333,-0.405,-0.26,100,
967,2.686111111111111,-0.4,-0.24,100,
968,2.688888888888889,-0.39,-0.245,100,
969,2.691666666666667,-0.395,-0.26,100,
970,2.6944444444444446,-0.41,-0.27,100,
971,2.6972222222222224,-0.415,-0.27,100,
972,2.7,-0.41,-0.255,100,
973,2.702777777777778,-0.395,-0.255,100,
974,2.7055555555555557,-0.405,-0.25,100,
975,2.7083333333333335,-0.41,-0.265,100,
976,2.7111111111111112,-0.405,-0.27,100,
977,2.713888888888889,-0.405,-0.27,100,
978,2.716666666666667,-0.41,-0.265,100,
979,2.7194444444444446,-0.39,-0.25,100,
980,2.7222222222222223,-0.385,-0.245,100,
981,2.725,-0.39,-0.265,100,
982,2.727777777777778,-0.395,-0.27,100,
983,2.7305555555555556,-0.4,-0.26,100,
984,2.7333333333333334,-0.4,-0.255,100,
985,2.736111111111111,-0.4,-0.245,100,
986,2.738888888888889,-0.395,-0.25,100,
987,2.7416666666666667,-0.395,-0.26,100,
988,2.7444444444444445,-0.405,-0.27,100,
989,2.7472222222222222,-0.405,-0.26,100,
990,2.75,-0.4,-0.255,100,
991,2.7527777777777778,-0.395,-0.25,100,
992,2.7555555555555555,-0.385,-0.255,100,
993,2.7583333333333333,-0.375,-0.255,100,
994,2.761111111111111,-0.385,-0.275,100,
995,2.763888888888889,-0.395,-0.27,100,
996,2.7666666666666666,-0.39,-0.265,100,
997,2.7694444444444444,-0.385,-0.26,100,
998,2.772222222222222,-0.375,-0.26,100,
999,2.775,-0.385,-0.275,100,
1000,2.7777777777777777,-0.395,-0.27,100,
1001,2.7805555555555554,-0.395,-0.26,100,
1002,2.783333333333333,-0.385,-0.245,100,
1003,2.786111111111111,-0.375,-0.255,100,
1004,2.7888888888888888,-0.375,-0.265,100,
1005,2.7916666666666665,-0.385,-0.265,100,
1006,2.7944444444444443,-0.395,-0.27,100,
1007,2.797222222222222,-0.39,-0.265,100,
1008,2.8,-0.39,-0.26,100,
1009,2.8027777777777776,-0.365,-0.27,100,
1010,2.8055555555555554,-0.375,-0.265,100,
1011,2.808333333333333,-0.385,-0.27,100,
1012,2.811111111111111,-0.395,-0.28,100,
1013,2.813888888888889,-0.38,-0.285,100,
1014,2.816666666666667,-0.385,-0.28,100,
1015,2.8194444444444446,-0.375,-0.285,100,
1016,2.8222222222222224,-0.38,-0.29,100,
1017,2.825,-0.39,-0.31,100,
1018,2.827777777777778,-0.38,-0.305,100,
1019,2.8305555555555557,-0.375,-0.3,100,
1020,2.8333333333333335,-0.375,-0.3,100,
1021,2.8361111111111112,-0.375,-0.31,100,
1022,2.838888888888889,-0.375,-0.325,100,
1023,2.841666666666667,-0.38,-0.34,100,
1024,2.8444444444444446,-0.39,-0.34,100,
1025,2.8472222222222223,-0.39,-0.325,100,
1026,2.85,-0.365,-0.32,100,
1027,2.852777777777778,-0.37,-0.355,100,
1028,2.8555555555555556,-0.375,-0.36,100,
1029,2.8583333333333334,-0.385,-0.38,100,
1030,2.861111111111111,-0.39,-0.385,100,
1031,2.863888888888889,-0.39,-0.375,100,
1032,2.8666666666666667,-0.375,-0.365,100,
1033,2.8694444444444445,-0.365,-0.375,100,
1034,2.8722222222222222,-0.385,-0.385,100,
1035,2.875,-0.38,-0.39,100,
1036,2.8777777777777778,-0.39,-0.395,100,
1037,2.8805555555555555,-0.375,-0.385,100,
1038,2.8833333333333333,-0.375,-0.375,100,
1039,2.886111111111111,-0.365,-0.375,100,
1040,2.888888888888889,-0.37,-0.375,100,
1041,2.8916666666666666,-0.385,-0.38,100,
1042,2.8944444444444444,-0.395,-0.365,100,
1043,2.897222222222222,-0.385,-0.345,100,
1044,2.9,-0.385,-0.335,100,
1045,2.9027777777777777,-0.37,-0.315,100,
1046,2.9055555555555554,-0.365,-0.31,100,
1047,2.908333333333333,-0.37,-0.305,100,
1048,2.911111111111111,-0.375,-0.29,100,
1049,2.9138888888888888,-0.35,-0.27,100,
1050,2.9166666666666665,-0.335,-0.255,100,
1051,2.9194444444444443,-0.32,-0.25,100,
1052,2.922222222222222,-0.315,-0.245,100,
1053,2.925,-0.32,-0.235,100,
1054,2.9277777777777776,-0.325,-0.235,100,
1055,2.9305555555555554,-0.315,-0.225,100,
1056,2.933333333333333,-0.295,-0.22,100,
1057,2.936111111111111,-0.285,-0.195,100,
1058,2.938888888888889,-0.3,-0.215,100,
1059,2.941666666666667,-0.295,-0.23,100,
1060,2.9444444444444446,-0.285,-0.215,100,
1061,2.9472222222222224,-0.285,-0.205,100,
1062,2.95,-0.28,-0.195,100,
1063,2.952777777777778,-0.27,-0.2,100,
1064,2.9555555555555557,-0.28,-0.195,100,
1065,2.9583333333333335,-0.29,-0.195,100,
1066,2.9611111111111112,-0.295,-0.205,100,
1067,2.963888888888889,-0.295,-0.195,100,
1068,2.966666666666667,-0.29,-0.18,100,
1069,2.9694444444444446,-0.28,-0.19,100,
1070,2.9722222222222223,-0.29,-0.205,100,
1071,2.975,-0.295,-0.21,100,
1072,2.977777777777778,-0.31,-0.205,100,
1073,2.9805555555555556,-0.295,-0.18,100,
1074,2.9833333333333334,-0.285,-0.185,100,
1075,2.986111111111111,-0.28,-0.19,100,
1076,2.988888888888889,-0.275,-0.205,100,
1077,2.9916666666666667,-0.295,-0.215,100,
1078,2.9944444444444445,-0.305,-0.215,100,
1079,2.9972222222222222,-0.3,-0.215,100,
1080,3.0,-0.295,-0.19,100,
1081,3.0027777777777778,-0.295,-0.21,100,
1082,3.0055555555555555,-0.285,-0.2,100,
1083,3.0083333333333333,-0.3,-0.215,100,
1084,3.011111111111111,-0.305,-0.22,100,
1085,3.013888888888889,-0.3,-0.225,100,
1086,3.0166666666666666,-0.295,-0.215,100,
1087,3.0194444444444444,-0.3,-0.215,100,
1088,3.022222222222222,-0.305,-0.23,100,
1089,3.025,-0.315,-0.225,100,
1090,3.0277777777777777,-0.31,-0.225,100,
1091,3.0305555555555554,-0.315,-0.21,100,
1092,3.033333333333333,-0.295,-0.21,100,
1093,3.036111111111111,-0.3,-0.215,100,
1094,3.0388888888888888,-0.31,-0.23,100,
1095,3.0416666666666665,-0.33,-0.235,100,
1096,3.0444444444444443,-0.34,-0.23,100,
1097,3.047222222222222,-0.33,-0.22,100,
1098,3.05,-0.32,-0.215,100,
1099,3.0527777777777776,-0.32,-0.23,100,
1100,3.0555555555555554,-0.315,-0.235,100,
1101,3.058333333333333,-0.325,-0.25,100,
1102,3.061111111111111,-0.335,-0.245,100,
1103,3.063888888888889,-0.33,-0.24,100,
1104,3.066666666666667,-0.315,-0.22,100,
1105,3.0694444444444446,-0.32,-0.23,100,
1106,3.0722222222222224,-0.32,-0.23,100,
1107,3.075,-0.33,-0.235,100,
1108,3.077777777777778,-0.345,-0.24,100,
1109,3.0805555555555557,-0.34,-0.235,100,
1110,3.0833333333333335,-0.335,-0.22,100,
1111,3.0861111111111112,-0.33,-0.23,100,
1112,3.088888888888889,-0.335,-0.24,100,
1113,3.091666666666667,-0.345,-0.255,100,
1114,3.0944444444444446,-0.35,-0.245,100,
1115,3.0972222222222223,-0.345,-0.235,100,
1116,3.1,-0.34,-0.22,100,
1117,3.102777777777778,-0.335,-0.23,100,
1118,3.1055555555555556,-0.335,-0.24,100,
1119,3.1083333333333334,-0.33,-0.25,100,
1120,3.111111111111111,-0.335,-0.255,100,
1121,3.113888888888889,-0.34,-0.24,100,
1122,3.1166666666666667,-0.335,-0.225,100,
1123,3.1194444444444445,-0.32,-0.23,100,
1124,3.1222222222222222,-0.34,-0.235,100,
1125,3.125,-0.34,-0.24,100,
1126,3.1277777777777778,-0.35,-0.245,100,
1127,3.1305555555555555,-0.365,-0.235,100,
1128,3.1333333333333333,-0.36,-0.23,100,
1129,3.136111111111111,-0.345,-0.235,100,
1130,3.138888888888889,-0.345,-0.24,100,
1131,3.1416666666666666,-0.35,-0.245,100,
1132,3.1444444444444444,-0.35,-0.235,100,
1133,3.147222222222222,-0.35,-0.235,100,
1134,3.15,-0.34,-0.23,100,
1135,3.1527777777777777,-0.34,-0.24,100,
1136,3.1555555555555554,-0.345,-0.235,100,
1137,3.158333333333333,-0.345,-0.245,100,
1138,3.161111111111111,-0.38,-0.25,100,
1139,3.1638888888888888,-0.36,-0.23,100,
1140,3.1666666666666665,-0.36,-0.21,100,
1141,3.1694444444444443,-0.345,-0.23,100,
1142,3.172222222222222,-0.345,-0.235,100,
1143,3.175,-0.35,-0.245,100,
1144,3.1777777777777776,-0.355,-0.25,100,
1145,3.1805555555555554,-0.345,-0.245,100,
1146,3.183333333333333,-0.33,-0.23,100,
1147,3.186111111111111,-0.33,-0.23,100,
1148,3.188888888888889,-0.335,-0.235,100,
1149,3.191666666666667,-0.335,-0.25,100,
1150,3.1944444444444446,-0.34,-0.25,100,
1151,3.1972222222222224,-0.33,-0.24,100,
1152,3.2,-0.32,-0.225,100,
1153,3.202777777777778,-0.29,-0.23,100,
1154,3.2055555555555557,-0.29,-0.235,100,
1155,3.2083333333333335,-0.3,-0.24,100,
1156,3.2111111111111112,-0.305,-0.245,100,
1157,3.213888888888889,-0.285,-0.24,100,
1158,3.216666666666667,-0.28,-0.225,100,
1159,3.2194444444444446,-0.275,-0.225,100,
1160,3.2222222222222223,-0.28,-0.23,100,
1161,3.225,-0.275,-0.23,100,
1162,3.227777777777778,-0.27,-0.225,100,
1163,3.2305555555555556,-0.265,-0.205,100,
1164,3.2333333333333334,-0.25,-0.21,100,
1165,3.236111111111111,-0.23,-0.22,100,
1166,3.238888888888889,-0.245,-0.205,100,
1167,3.2416666666666667,-0.24,-0.22,100,
1168,3.2444444444444445,-0.255,-0.22,100,
1169,3.2472222222222222,-0.255,-0.21,100,
1170,3.25,-0.245,-0.19,100,
1171,3.2527777777777778,-0.235,-0.18,100,
1172,3.2555555555555555,-0.255,-0.18,100,
1173,3.2583333333333333,-0.265,-0.185,100,
1174,3.261111111111111,-0.26,-0.19,100,
1175,3.263888888888889,-0.255,-0.19,100,
1176,3.2666666666666666,-0.27,-0.185,100,
1177,3.2694444444444444,-0.265,-0.205,100,
1178,3.272222222222222,-0.28,-0.2,100,
1179,3.275,-0.255,-0.22,100,
1180,3.2777777777777777,-0.25,-0.22,100,
1181,3.2805555555555554,-0.245,-0.22,100,
1182,3.283333333333333,-0.265,-0.21,100,
1183,3.286111111111111,-0.28,-0.225,100,
1184,3.2888888888888888,-0.3,-0.22,100,
1185,3.2916666666666665,-0.315,-0.24,100,
1186,3.2944444444444443,-0.325,-0.245,100,
1187,3.297222222222222,-0.335,-0.235,100,
1188,3.3,-0.345,-0.23,100,
1189,3.3027777777777776,-0.33,-0.245,100,
1190,3.3055555555555554,-0.335,-0.245,100,
1191,3.308333333333333,-0.345,-0.25,100,
1192,3.311111111111111,-0.36,-0.255,100,
1193,3.313888888888889,-0.35,-0.23,100,
1194,3.316666666666667,-0.34,-0.225,100,
1195,3.3194444444444446,-0.335,-0.23,100,
1196,3.3222222222222224,-0.345,-0.245,100,
1197,3.325,-0.36,-0.255,100,
1198,3.327777777777778,-0.365,-0.265,100,
1199,3.3305555555555557,-0.375,-0.255,100,
1200,3.3333333333333335,-0.37,-0.245,100,
1201,3.3361111111111112,-0.365,-0.26,100,
1202,3.338888888888889,-0.365,-0.25,100,
1203,3.341666666666667,-0.38,-0.26,100,
1204,3.3444444444444446,-0.375,-0.27,100,
1205,3.3472222222222223,-0.375,-0.24,100,
1206,3.35,-0.365,-0.245,100,
1207,3.352777777777778,-0.37,-0.25,100,
1208,3.3555555555555556,-0.36,-0.25,100,
1209,3.3583333333333334,-0.37,-0.25,100,
1210,3.361111111111111,-0.38,-0.265,100,
1211,3.363888888888889,-0.365,-0.255,100,
1212,3.3666666666666667,-0.36,-0.245,100,
1213,3.3694444444444445,-0.35,-0.255,100,
1214,3.3722222222222222,-0.355,-0.265,100,
1215,3.375,-0.37,-0.28,100,
1216,3.3777777777777778,-0.385,-0.305,100,
1217,3.3805555555555555,-0.395,-0.32,100,
1218,3.3833333333333333,-0.43,-0.35,100,
1219,3.386111111111111,-0.445,-0.38,100,
1220,3.388888888888889,-0.485,-0.39,100,
1221,3.3916666666666666,-0.515,-0.345,100,
1222,3.3944444444444444,-0.565,-0.24,100,
1223,3.397222222222222,-0.555,-0.11,100,
1224,3.4,-0.475,-0.02,100,
1225,3.4027777777777777,-0.355,0.04,100,
1226,3.4055555555555554,-0.22,0.11,100,
1227,3.408333333333333,-0.055,0.22,100,
1228,3.411111111111111,0.185,0.35,100,
1229,3.4138888888888888,0.475,0.44,100,
1230,3.4166666666666665,0.705,0.395,100,
1231,3.4194444444444443,0.82,0.155,100,N
1232,3.422222222222222,0.78,-0.17,100,
1233,3.425,0.535,-0.38,100,
1234,3.4277777777777776,0.145,-0.41,100,
1235,3.4305555555555554,-0.2,-0.355,100,
1236,3.433333333333333,-0.42,-0.32,100,
1237,3.436111111111111,-0.5,-0.305,100,
1238,3.438888888888889,-0.48,-0.3,100,
1239,3.441666666666667,-0.45,-0.295,100,
1240,3.4444444444444446,-0.41,-0.295,100,
1241,3.4472222222222224,-0.4,-0.285,100,
1242,3.45,-0.39,-0.3,100,
1243,3.452777777777778,-0.39,-0.31,100,
1244,3.4555555555555557,-0.4,-0.305,100,
1245,3.4583333333333335,-0.405,-0.305,100,
1246,3.4611111111111112,-0.425,-0.295,100,
1247,3.463888888888889,-0.425,-0.27,100,
1248,3.466666666666667,-0.405,-0.27,100,
1249,3.4694444444444446,-0.395,-0.285,100,
1250,3.4722222222222223,-0.405,-0.305,100,
1251,3.475,-0.405,-0.31,100,
1252,3.477777777777778,-0.415,-0.3,100,
1253,3.4805555555555556,-0.405,-0.29,100,
1254,3.4833333333333334,-0.385,-0.275,100,
1255,3.486111111111111,-0.39,-0.285,100,
1256,3.488888888888889,-0.395,-0.285,100,
1257,3.4916666666666667,-0.395,-0.305,100,
1258,3.4944444444444445,-0.395,-0.29,100,
1259,3.4972222222222222,-0.395,-0.29,100,
1260,3.5,-0.385,-0.285,100,
1261,3.5027777777777778,-0.39,-0.285,100,
1262,3.5055555555555555,-0.39,-0.29,100,
1263,3.5083333333333333,-0.4,-0.3,100,
1264,3.511111111111111,-0.425,-0.295,100,
1265,3.513888888888889,-0.41,-0.285,100,
1266,3.5166666666666666,-0.4,-0.275,100,
1267,3.5194444444444444,-0.395,-0.29,100,
1268,3.522222222222222,-0.4,-0.295,100,
1269,3.525,-0.405,-0.275,100,
1270,3.5277777777777777,-0.425,-0.285,100,
1271,3.5305555555555554,-0.415,-0.285,100,
1272,3.533333333333333,-0.405,-0.26,100,
1273,3.536111111111111,-0.405,-0.27,100,
1274,3.5388888888888888,-0.405,-0.265,100,
1275,3.5416666666666665,-0.41,-0.285,100,
1276,3.5444444444444443,-0.415,-0.29,100,
1277,3.547222222222222,-0.405,-0.295,100,
1278,3.55,-0.42,-0.28,100,
1279,3.5527777777777776,-0.405,-0.29,100,
1280,3.5555555555555554,-0.41,-0.295,100,
1281,3.558333333333333,-0.41,-0.3,100,
1282,3.561111111111111,-0.42,-0.31,100,
1283,3.563888888888889,-0.415,-0.305,100,
1284,3.566666666666667,-0.405,-0.295,100,
1285,3.5694444444444446,-0.395,-0.3,100,
1286,3.5722222222222224,-0.395,-0.28,100,
1287,3.575,-0.395,-0.29,100,
1288,3.577777777777778,-0.4,-0.305,100,
1289,3.5805555555555557,-0.395,-0.29,100,
1290,3.5833333333333335,-0.395,-0.285,100,
1291,3.5861111111111112,-0.405,-0.305,100,
1292,3.588888888888889,-0.405,-0.31,100,
1293,3.591666666666667,-0.42,-0.315,100,
1294,3.5944444444444446,-0.435,-0.305,100,
1295,3.5972222222222223,-0.415,-0.295,100,
1296,3.6,-0.405,-0.29,100,
1297,3.602777777777778,-0.395,-0.295,100,
1298,3.6055555555555556,-0.39,-0.3,100,
1299,3.6083333333333334,-0.415,-0.305,100,
1300,3.611111111111111,-0.405,-0.325,100,
1301,3.613888888888889,-0.405,-0.31,100,
1302,3.6166666666666667,-0.4,-0.3,100,
1303,3.6194444444444445,-0.395,-0.31,100,
1304,3.6222222222222222,-0.395,-0.335,100,
1305,3.625,-0.405,-0.34,100,
1306,3.6277777777777778,-0.42,-0.35,100,
1307,3.6305555555555555,-0.415,-0.355,100,
1308,3.6333333333333333,-0.4,-0.34,100,
1309,3.636111111111111,-0.395,-0.35,100,
1310,3.638888888888889,-0.4,-0.365,100,
1311,3.6416666666666666,-0.405,-0.38,100,
1312,3.6444444444444444,-0.425,-0.4,100,
1313,3.647222222222222,-0.425,-0.385,100,
1314,3.65,-0.425,-0.38,100,
1315,3.6527777777777777,-0.42,-0.39,100,
1316,3.6555555555555554,-0.425,-0.4,100,
1317,3.658333333333333,-0.45,-0.405,100,
1318,3.661111111111111,-0.445,-0.405,100,
1319,3.6638888888888888,-0.45,-0.405,100,
1320,3.6666666666666665,-0.435,-0.415,100,
1321,3.6694444444444443,-0.445,-0.415,100,
1322,3.672222222222222,-0.47,-0.42,100,
1323,3.675,-0.455,-0.415,100,
1324,3.6777777777777776,-0.46,-0.425,100,
1325,3.6805555555555554,-0.44,-0.41,100,
1326,3.683333333333333,-0.435,-0.395,100,
1327,3.686111111111111,-0.425,-0.385,100,
1328,3.688888888888889,-0.43,-0.405,100,
1329,3.691666666666667,-0.445,-0.395,100,
1330,3.6944444444444446,-0.45,-0.395,100,
1331,3.6972222222222224,-0.445,-0.375,100,
1332,3.7,-0.43,-0.37,100,
1333,3.702777777777778,-0.42,-0.375,100,
1334,3.7055555555555557,-0.41,-0.375,100,
1335,3.7083333333333335,-0.425,-0.37,100,
1336,3.7111111111111112,-0.42,-0.36,100,
1337,3.713888888888889,-0.405,-0.345,100,
1338,3.716666666666667,-0.38,-0.32,100,
1339,3.7194444444444446,-0.37,-0.305,100,
1340,3.7222222222222223,-0.365,-0.305,100,
1341,3.725,-0.365,-0.3,100,
1342,3.727777777777778,-0.365,-0.285,100,
1343,3.7305555555555556,-0.345,-0.275,100,
1344,3.7333333333333334,-0.33,-0.26,100,
1345,3.736111111111111,-0.315,-0.245,100,
1346,3.738888888888889,-0.305,-0.245,100,
1347,3.7416666666666667,-0.305,-0.25,100,
1348,3.7444444444444445,-0.32,-0.255,100,
1349,3.7472222222222222,-0.31,-0.245,100,
1350,3.75,-0.31,-0.23,100,
1351,3.7527777777777778,-0.305,-0.235,100,
1352,3.7555555555555555,-0.31,-0.245,100,
1353,3.7583333333333333,-0.315,-0.255,100,
1354,3.761111111111111,-0.32,-0.255,100,
1355,3.763888888888889,-0.315,-0.225,100,
1356,3.7666666666666666,-0.305,-0.23,100,
1357,3.7694444444444444,-0.305,-0.235,100,
1358,3.772222222222222,-0.295,-0.24,100,
1359,3.775,-0.31,-0.25,100,
1360,3.7777777777777777,-0.32,-0.245,100,
1361,3.7805555555555554,-0.31,-0.225,100,
1362,3.783333333333333,-0.315,-0.215,100,
1363,3.786111111111111,-0.295,-0.22,100,
1364,3.7888888888888888,-0.3,-0.24,100,
1365,3.7916666666666665,-0.305,-0.25,100,
1366,3.7944444444444443,-0.3,-0.255,100,
1367,3.797222222222222,-0.285,-0.245,100,
1368,3.8,-0.28,-0.24,100,
1369,3.8027777777777776,-0.29,-0.235,100,
1370,3.8055555555555554,-0.295,-0.245,100,
1371,3.808333333333333,-0.305,-0.255,100,
1372,3.811111111111111,-0.325,-0.25,100,
1373,3.813888888888889,-0.305,-0.235,100,
1374,3.816666666666667,-0.3,-0.23,100,
1375,3.8194444444444446,-0.3,-0.25,100,
1376,3.8222222222222224,-0.315,-0.26,100,
1377,3.825,-0.325,-0.275,100,
1378,3.827777777777778,-0.335,-0.28,100,
1379,3.8305555555555557,-0.325,-0.275,100,
1380,3.8333333333333335,-0.315,-0.26,100,
1381,3.8361111111111112,-0.32,-0.27,100,
1382,3.838888888888889,-0.335,-0.255,100,
1383,3.841666666666667,-0.33,-0.265,100,
1384,3.8444444444444446,-0.34,-0.255,100,
1385,3.8472222222222223,-0.325,-0.265,100,
1386,3.85,-0.325,-0.26,100,
1387,3.852777777777778,-0.32,-0.265,100,
1388,3.8555555555555556,-0.315,-0.265,100,
1389,3.8583333333333334,-0.335,-0.275,100,
1390,3.861111111111111,-0.335,-0.27,100,
1391,3.863888888888889,-0.345,-0.265,100,
1392,3.8666666666666667,-0.335,-0.255,100,
1393,3.8694444444444445,-0.325,-0.255,100,
1394,3.8722222222222222,-0.33,-0.265,100,
1395,3.875,-0.315,-0.275,100,
1396,3.8777777777777778,-0.335,-0.29,100,
1397,3.8805555555555555,-0.33,-0.275,100,
1398,3.8833333333333333,-0.33,-0.26,100,
1399,3.886111111111111,-0.33,-0.27,100,
1400,3.888888888888889,-0.33,-0.265,100,
1401,3.8916666666666666,-0.335,-0.27,100,
1402,3.8944444444444444,-0.34,-0.265,100,
1403,3.897222222222222,-0.33,-0.265,100,
1404,3.9,-0.32,-0.25,100,
1405,3.9027777777777777,-0.315,-0.265,100,
1406,3.9055555555555554,-0.325,-0.265,100,
1407,3.908333333333333,-0.335,-0.27,100,
1408,3.911111111111111,-0.355,-0.27,100,
1409,3.9138888888888888,-0.345,-0.265,100,
1410,3.9166666666666665,-0.34,-0.255,100,
1411,3.9194444444444443,-0.335,-0.26,100,
1412,3.922222222222222,-0.32,-0.255,100,
1413,3.925,-0.325,-0.27,100,
1414,3.9277777777777776,-0.35,-0.27,100,
1415,3.9305555555555554,-0.33,-0.285,100,
1416,3.933333333333333,-0.315,-0.265,100,
1417,3.936111111111111,-0.315,-0.26,100,
1418,3.938888888888889,-0.33,-0.265,100,
1419,3.941666666666667,-0.33,-0.27,100,
1420,3.9444444444444446,-0.335,-0.265,100,
1421,3.9472222222222224,-0.335,-0.26,100,
1422,3.95,-0.33,-0.25,100,
1423,3.952777777777778,-0.33,-0.265,100,
1424,3.9555555555555557,-0.33,-0.265,100,
1425,3.9583333333333335,-0.34,-0.27,100,
1426,3.9611111111111112,-0.34,-0.265,100,
1427,3.963888888888889,-0.34,-0.255,100,
1428,3.966666666666667,-0.325,-0.245,100,
1429,3.9694444444444446,-0.325,-0.255,100,
1430,3.9722222222222223,-0.325,-0.275,100,
1431,3.975,-0.345,-0.275,100,
1432,3.977777777777778,-0.35,-0.275,100,
1433,3.9805555555555556,-0.34,-0.255,100,
1434,3.9833333333333334,-0.33,-0.255,100,
1435,3.986111111111111,-0.32,-0.26,100,
1436,3.988888888888889,-0.31,-0.265,100,
1437,3.9916666666666667,-0.305,-0.285,100,
1438,3.9944444444444445,-0.305,-0.28,100,
1439,3.9972222222222222,-0.275,-0.265,100,
1440,4.0,-0.27,-0.26,100,
1441,4.002777777777778,-0.255,-0.255,100,
1442,4.0055555555555555,-0.26,-0.25,100,
1443,4.008333333333334,-0.265,-0.255,100,
1444,4.011111111111111,-0.26,-0.25,100,
1445,4.013888888888889,-0.25,-0.24,100,
1446,4.016666666666667,-0.235,-0.23,100,
1447,4.019444444444445,-0.235,-0.235,100,
1448,4.022222222222222,-0.22,-0.225,100,
1449,4.025,-0.235,-0.235,100,
1450,4.027777777777778,-0.235,-0.24,100,
1451,4.030555555555556,-0.22,-0.225,100,
1452,4.033333333333333,-0.23,-0.215,100,
1453,4.036111111111111,-0.225,-0.235,100,
1454,4.038888888888889,-0.235,-0.23,100,
1455,4.041666666666667,-0.245,-0.225,100,
1456,4.044444444444444,-0.255,-0.215,100,
1457,4.0472222222222225,-0.24,-0.205,100,
1458,4.05,-0.23,-0.2,100,
1459,4.052777777777778,-0.23,-0.21,100,
1460,4.055555555555555,-0.25,-0.225,100,
1461,4.058333333333334,-0.255,-0.23,100,
1462,4.061111111111111,-0.25,-0.225,100,
1463,4.063888888888889,-0.23,-0.215,100,
1464,4.066666666666666,-0.205,-0.21,100,
1465,4.069444444444445,-0.195,-0.235,100,
1466,4.072222222222222,-0.21,-0.24,100,
1467,4.075,-0.23,-0.255,100,
1468,4.0777777777777775,-0.27,-0.245,100,
1469,4.080555555555556,-0.27,-0.235,100,
1470,4.083333333333333,-0.285,-0.23,100,
1471,4.086111111111111,-0.285,-0.235,100,
1472,4.088888888888889,-0.31,-0.245,100,
1473,4.091666666666667,-0.33,-0.27,100,
1474,4.094444444444444,-0.34,-0.26,100,
1475,4.097222222222222,-0.34,-0.25,100,
1476,4.1,-0.345,-0.24,100,
1477,4.102777777777778,-0.35,-0.24,100,
1478,4.105555555555555,-0.35,-0.255,100,
1479,4.108333333333333,-0.34,-0.26,100,
1480,4.111111111111111,-0.355,-0.265,100,
1481,4.113888888888889,-0.345,-0.255,100,
1482,4.116666666666666,-0.34,-0.245,100,
1483,4.1194444444444445,-0.34,-0.245,100,
1484,4.122222222222222,-0.345,-0.26,100,
1485,4.125,-0.355,-0.255,100,
1486,4.127777777777778,-0.37,-0.26,100,
1487,4.1305555555555555,-0.355,-0.255,100,
1488,4.133333333333334,-0.37,-0.24,100,
1489,4.136111111111111,-0.345,-0.24,100,
1490,4.138888888888889,-0.34,-0.26,100,
1491,4.141666666666667,-0.36,-0.26,100,
1492,4.144444444444445,-0.38,-0.25,100,
1493,4.147222222222222,-0.36,-0.24,100,
1494,4.15,-0.345,-0.235,100,
1495,4.152777777777778,-0.35,-0.24,100,
1496,4.155555555555556,-0.35,-0.255,100,
1497,4.158333333333333,-0.355,-0.27,100,
1498,4.161111111111111,-0.38,-0.285,100,
1499,4.163888888888889,-0.39,-0.29,100,
1500,4.166666666666667,-0.395,-0.31,100,
1501,4.169444444444444,-0.425,-0.33,100,
1502,4.1722222222222225,-0.455,-0.365,100,
1503,4.175,-0.475,-0.37,100,
1504,4.177777777777778,-0.51,-0.35,100,
1505,4.180555555555555,-0.545,-0.26,100,
1506,4.183333333333334,-0.54,-0.135,100,
1507,4.186111111111111,-0.495,-0.02,100,
1508,4.188888888888889,-0.405,0.035,100,
1509,4.191666666666666,-0.295,0.095,100,
1510,4.194444444444445,-0.16,0.185,100,
1511,4.197222222222222,0.04,0.315,100,
1512,4.2,0.315,0.45,100,
1513,4.2027777777777775,0.595,0.515,100,
1514,4.205555555555556,0.8,0.45,100,
1515,4.208333333333333,0.885,0.175,100,N
1516,4.211111111111111,0.795,-0.18,100,
1517,4.213888888888889,0.52,-0.385,100,
1518,4.216666666666667,0.13,-0.395,100,
1519,4.219444444444444,-0.215,-0.345,100,
1520,4.222222222222222,-0.425,-0.31,100,
1521,4.225,-0.5,-0.29,100,
1522,4.227777777777778,-0.49,-0.275,100,
1523,4.230555555555555,-0.45,-0.265,100,
1524,4.233333333333333,-0.4,-0.235,100,
1525,4.236111111111111,-0.39,-0.25,100,
1526,4.238888888888889,-0.395,-0.265,100,
1527,4.241666666666666,-0.395,-0.255,100,
1528,4.2444444444444445,-0.4,-0.245,100,
1529,4.247222222222222,-0.39,-0.24,100,
1530,4.25,-0.38,-0.24,100,
1531,4.252777777777778,-0.385,-0.25,100,
1532,4.2555555555555555,-0.385,-0.26,100,
1533,4.258333333333334,-0.4,-0.265,100,
1534,4.261111111111111,-0.41,-0.275,100,
1535,4.263888888888889,-0.41,-0.255,100,
1536,4.266666666666667,-0.39,-0.24,100,
1537,4.269444444444445,-0.39,-0.245,100,
1538,4.272222222222222,-0.405,-0.26,100,
1539,4.275,-0.405,-0.26,100,
1540,4.277777777777778,-0.415,-0.265,100,
1541,4.280555555555556,-0.41,-0.25,100,
1542,4.283333333333333,-0.395,-0.25,100,
1543,4.286111111111111,-0.395,-0.245,100,
1544,4.288888888888889,-0.4,-0.25,100,
1545,4.291666666666667,-0.415,-0.265,100,
1546,4.294444444444444,-0.415,-0.255,100,
1547,4.2972222222222225,-0.415,-0.25,100,
1548,4.3,-0.4,-0.245,100,
1549,4.302777777777778,-0.39,-0.245,100,
1550,4.305555555555555,-0.39,-0.255,100,
1551,4.308333333333334,-0.41,-0.26,100,
1552,4.311111111111111,-0.415,-0.25,100,
1553,4.313888888888889,-0.405,-0.24,100,
1554,4.316666666666666,-0.395,-0.215,100,
1555,4.319444444444445,-0.395,-0.23,100,
1556,4.322222222222222,-0.395,-0.25,100,
1557,4.325,-0.405,-0.25,100,
1558,4.3277777777777775,-0.41,-0.255,100,
1559,4.330555555555556,-0.41,-0.24,100,
1560,4.333333333333333,-0.4,-0.22,100,
1561,4.336111111111111,-0.39,-0.235,100,
1562,4.338888888888889,-0.395,-0.235,100,
1563,4.341666666666667,-0.41,-0.24,100,
1564,4.344444444444444,-0.425,-0.255,100,
1565,4.347222222222222,-0.415,-0.245,100,
1566,4.35,-0.405,-0.225,100,
1567,4.352777777777778,-0.41,-0.23,100,
1568,4.355555555555555,-0.405,-0.235,100,
1569,4.358333333333333,-0.415,-0.24,100,
1570,4.361111111111111,-0.425,-0.24,100,
1571,4.363888888888889,-0.425,-0.24,100,
1572,4.366666666666666,-0.41,-0.23,100,
1573,4.3694444444444445,-0.395,-0.245,100,
1574,4.372222222222222,-0.39,-0.255,100,
1575,4.375,-0.4,-0.25,100,
1576,4.377777777777778,-0.41,-0.25,100,
1577,4.3805555555555555,-0.41,-0.235,100,
1578,4.383333333333334,-0.4,-0.24,100,
1579,4.386111111111111,-0.39,-0.235,100,
1580,4.388888888888889,-0.41,-0.255,100,
1581,4.391666666666667,-0.42,-0.255,100,
1582,4.394444444444445,-0.42,-0.255,100,
1583,4.397222222222222,-0.415,-0.25,100,
1584,4.4,-0.415,-0.235,100,
1585,4.402777777777778,-0.405,-0.26,100,
1586,4.405555555555556,-0.42,-0.255,100,
1587,4.408333333333333,-0.415,-0.27,100,
1588,4.411111111111111,-0.425,-0.285,100,
1589,4.413888888888889,-0.41,-0.285,100,
1590,4.416666666666667,-0.4,-0.28,100,
1591,4.419444444444444,-0.405,-0.285,100,
1592,4.4222222222222225,-0.4,-0.285,100,
1593,4.425,-0.4,-0.305,100,
1594,4.427777777777778,-0.41,-0.295,100,
1595,4.430555555555555,-0.4,-0.285,100,
1596,4.433333333333334,-0.395,-0.29,100,
1597,4.436111111111111,-0.395,-0.305,100,
1598,4.438888888888889,-0.405,-0.32,100,
1599,4.441666666666666,-0.41,-0.335,100,
1600,4.444444444444445,-0.425,-0.34,100,
1601,4.447222222222222,-0.425,-0.315,100,
1602,4.45,-0.41,-0.315,100,
1603,4.4527777777777775,-0.41,-0.33,100,
1604,4.455555555555556,-0.42,-0.345,100,
1605,4.458333333333333,-0.43,-0.35,100,
1606,4.461111111111111,-0.445,-0.355,100,
1607,4.463888888888889,-0.44,-0.365,100,
1608,4.466666666666667,-0.435,-0.355,100,
1609,4.469444444444444,-0.43,-0.365,100,
1610,4.472222222222222,-0.43,-0.37,100,
1611,4.475,-0.45,-0.375,100,
1612,4.477777777777778,-0.445,-0.375,100,
1613,4.480555555555555,-0.445,-0.37,100,
1614,4.483333333333333,-0.435,-0.355,100,
1615,4.486111111111111,-0.435,-0.36,100,
1616,4.488888888888889,-0.445,-0.34,100,
1617,4.491666666666666,-0.44,-0.34,100,
1618,4.4944444444444445,-0.45,-0.33,100,
1619,4.497222222222222,-0.43,-0.315,100,
1620,4.5,-0.43,-0.29,100,
1621,4.502777777777778,-0.415,-0.275,100,
1622,4.5055555555555555,-0.4,-0.265,100,
1623,4.508333333333334,-0.4,-0.26,100,
1624,4.511111111111111,-0.385,-0.245,100,
1625,4.513888888888889,-0.365,-0.225,100,
1626,4.516666666666667,-0.335,-0.205,100,
1627,4.519444444444445,-0.33,-0.2,100,
1628,4.522222222222222,-0.325,-0.19,100,
1629,4.525,-0.33,-0.2,100,
1630,4.527777777777778,-0.33,-0.185,100,
1631,4.530555555555556,-0.31,-0.175,100,
1632,4.533333333333333,-0.295,-0.16,100,
1633,4.536111111111111,-0.285,-0.155,100,
1634,4.538888888888889,-0.29,-0.165,100,
1635,4.541666666666667,-0.29,-0.16,100,
1636,4.544444444444444,-0.31,-0.17,100,
1637,4.5472222222222225,-0.295,-0.15,100,
1638,4.55,-0.285,-0.145,100,
1639,4.552777777777778,-0.28,-0.15,100,
1640,4.555555555555555,-0.3,-0.145,100,
1641,4.558333333333334,-0.29,-0.145,100,
1642,4.561111111111111,-0.295,-0.155,100,
1643,4.563888888888889,-0.29,-0.15,100,
1644,4.566666666666666,-0.28,-0.135,100,
1645,4.569444444444445,-0.275,-0.145,100,
1646,4.572222222222222,-0.275,-0.145,100,
1647,4.575,-0.29,-0.15,100,
1648,4.5777777777777775,-0.29,-0.145,100,
1649,4.580555555555556,-0.285,-0.14,100,
1650,4.583333333333333,-0.27,-0.13,100,
1651,4.586111111111111,-0.27,-0.135,100,
1652,4.588888888888889,-0.27,-0.14,100,
1653,4.591666666666667,-0.275,-0.145,100,
1654,4.594444444444444,-0.29,-0.165,100,
1655,4.597222222222222,-0.285,-0.155,100,
1656,4.6,-0.275,-0.145,100,
1657,4.602777777777778,-0.275,-0.15,100,
1658,4.605555555555555,-0.29,-0.16,100,
1659,4.608333333333333,-0.295,-0.16,100,
1660,4.611111111111111,-0.305,-0.16,100,
1661,4.613888888888889,-0.295,-0.145,100,
1662,4.616666666666666,-0.295,-0.14,100,
1663,4.6194444444444445,-0.285,-0.15,100,
1664,4.622222222222222,-0.29,-0.165,100,
1665,4.625,-0.3,-0.17,100,
1666,4.627777777777778,-0.305,-0.165,100,
1667,4.6305555555555555,-0.31,-0.165,100,
1668,4.633333333333334,-0.295,-0.15,100,
1669,4.636111111111111,-0.3,-0.15,100,
1670,4.638888888888889,-0.305,-0.165,100,
1671,4.641666666666667,-0.31,-0.17,100,
1672,4.644444444444445,-0.325,-0.18,100,
1673,4.647222222222222,-0.325,-0.165,100,
1674,4.65,-0.315,-0.155,100,
1675,4.652777777777778,-0.31,-0.16,100,
1676,4.655555555555556,-0.315,-0.165,100,
1677,4.658333333333333,-0.315,-0.175,100,
1678,4.661111111111111,-0.325,-0.18,100,
1679,4.663888888888889,-0.32,-0.165,100,
1680,4.666666666666667,-0.31,-0.15,100,
1681,4.669444444444444,-0.32,-0.17,100,
1682,4.6722222222222225,-0.315,-0.17,100,
1683,4.675,-0.33,-0.185,100,
1684,4.677777777777778,-0.33,-0.175,100,
1685,4.680555555555555,-0.32,-0.175,100,
1686,4.683333333333334,-0.31,-0.16,100,
1687,4.686111111111111,-0.31,-0.165,100,
1688,4.688888888888889,-0.31,-0.17,100,
1689,4.691666666666666,-0.33,-0.18,100,
1690,4.694444444444445,-0.335,-0.175,100,
1691,4.697222222222222,-0.33,-0.17,100,
1692,4.7,-0.32,-0.16,100,
1693,4.7027777777777775,-0.325,-0.16,100,
1694,4.705555555555556,-0.325,-0.17,100,
1695,4.708333333333333,-0.33,-0.19,100,
1696,4.711111111111111,-0.335,-0.165,100,
1697,4.713888888888889,-0.33,-0.16,100,
1698,4.716666666666667,-0.325,-0.155,100,
1699,4.719444444444444,-0.325,-0.16,100,
1700,4.722222222222222,-0.32,-0.155,100,
1701,4.725,-0.325,-0.165,100,
1702,4.727777777777778,-0.33,-0.185,100,
1703,4.730555555555555,-0.325,-0.175,100,
1704,4.733333333333333,-0.315,-0.15,100,
1705,4.736111111111111,-0.305,-0.155,100,
1706,4.738888888888889,-0.325,-0.165,100,
1707,4.741666666666666,-0.315,-0.17,100,
1708,4.7444444444444445,-0.335,-0.17,100,
1709,4.747222222222222,-0.33,-0.165,100,
1710,4.75,-0.31,-0.15,100,
1711,4.752777777777778,-0.32,-0.16,100,
1712,4.7555555555555555,-0.33,-0.17,100,
1713,4.758333333333334,-0.33,-0.175,100,
1714,4.761111111111111,-0.335,-0.18,100,
1715,4.763888888888889,-0.33,-0.155,100,
1716,4.766666666666667,-0.33,-0.15,100,
1717,4.769444444444445,-0.32,-0.145,100,
1718,4.772222222222222,-0.32,-0.16,100,
1719,4.775,-0.33,-0.165,100,
1720,4.777777777777778,-0.33,-0.16,100,
1721,4.780555555555556,-0.325,-0.16,100,
1722,4.783333333333333,-0.315,-0.145,100,
1723,4.786111111111111,-0.315,-0.15,100,
1724,4.788888888888889,-0.315,-0.15,100,
1725,4.791666666666667,-0.33,-0.16,100,
1726,4.794444444444444,-0.33,-0.16,100,
1727,4.7972222222222225,-0.32,-0.15,100,
1728,4.8,-0.315,-0.15,100,
1729,4.802777777777778,-0.305,-0.15,100,
1730,4.805555555555555,-0.305,-0.155,100,
1731,4.808333333333334,-0.295,-0.16,100,
1732,4.811111111111111,-0.315,-0.16,100,
1733,4.813888888888889,-0.3,-0.15,100,
1734,4.816666666666666,-0.275,-0.13,100,
1735,4.819444444444445,-0.255,-0.15,100,
1736,4.822222222222222,-0.255,-0.155,100,
1737,4.825,-0.26,-0.16,100,
1738,4.8277777777777775,-0.265,-0.15,100,
1739,4.830555555555556,-0.255,-0.125,100,
1740,4.833333333333333,-0.235,-0.12,100,
1741,4.836111111111111,-0.23,-0.115,100,
1742,4.838888888888889,-0.225,-0.125,100,
1743,4.841666666666667,-0.22,-0.135,100,
1744,4.844444444444444,-0.22,-0.14,100,
1745,4.847222222222222,-0.215,-0.13,100,
1746,4.85,-0.2,-0.105,100,
1747,4.852777777777778,-0.205,-0.105,100,
1748,4.855555555555555,-0.205,-0.1,100,
1749,4.858333333333333,-0.225,-0.105,100,
1750,4.861111111111111,-0.235,-0.09,100,
1751,4.863888888888889,-0.24,-0.08,100,
1752,4.866666666666666,-0.23,-0.075,100,
1753,4.8694444444444445,-0.215,-0.09,100,
1754,4.872222222222222,-0.24,-0.09,100,
1755,4.875,-0.24,-0.1,100,
1756,4.877777777777778,-0.25,-0.1,100,
1757,4.8805555555555555,-0.235,-0.095,100,
1758,4.883333333333334,-0.21,-0.09,100,
1759,4.886111111111111,-0.2,-0.11,100,
1760,4.888888888888889,-0.22,-0.125,100,
1761,4.891666666666667,-0.255,-0.13,100,
1762,4.894444444444445,-0.275,-0.12,100,
1763,4.897222222222222,-0.285,-0.12,100,
1764,4.9,-0.3,-0.11,100,
1765,4.902777777777778,-0.305,-0.11,100,
1766,4.905555555555556,-0.32,-0.12,100,
1767,4.908333333333333,-0.33,-0.13,100,
1768,4.911111111111111,-0.325,-0.14,100,
1769,4.913888888888889,-0.32,-0.145,100,
1770,4.916666666666667,-0.33,-0.125,100,
1771,4.919444444444444,-0.33,-0.13,100,
1772,4.9222222222222225,-0.335,-0.15,100,
1773,4.925,-0.34,-0.145,100,
1774,4.927777777777778,-0.345,-0.14,100,
1775,4.930555555555555,-0.34,-0.14,100,
1776,4.933333333333334,-0.335,-0.12,100,
1777,4.936111111111111,-0.32,-0.135,100,
1778,4.938888888888889,-0.325,-0.145,100,
1779,4.941666666666666,-0.335,-0.16,100,
1780,4.944444444444445,-0.345,-0.15,100,
1781,4.947222222222222,-0.345,-0.135,100,
1782,4.95,-0.345,-0.125,100,
1783,4.9527777777777775,-0.335,-0.135,100,
1784,4.955555555555556,-0.34,-0.145,100,
1785,4.958333333333333,-0.345,-0.15,100,
1786,4.961111111111111,-0.355,-0.16,100,
1787,4.963888888888889,-0.34,-0.145,100,
1788,4.966666666666667,-0.34,-0.135,100,
1789,4.969444444444444,-0.34,-0.135,100,
1790,4.972222222222222,-0.34,-0.125,100,
1791,4.975,-0.345,-0.16,100,
1792,4.977777777777778,-0.355,-0.175,100,
1793,4.980555555555555,-0.365,-0.195,100,
1794,4.983333333333333,-0.37,-0.21,100,
1795,4.986111111111111,-0.405,-0.23,100,
1796,4.988888888888889,-0.445,-0.27,100,
1797,4.991666666666666,-0.48,-0.29,100,
1798,4.9944444444444445,-0.495,-0.28,100,
1799,4.997222222222222,-0.52,-0.195,100,
1800,5.0,-0.535,-0.05,100,
1801,5.002777777777778,-0.505,0.085,100,
1802,5.0055555555555555,-0.415,0.195,100,
1803,5.008333333333334,-0.28,0.305,100,
1804,5.011111111111111,-0.135,0.42,100,
1805,5.013888888888889,0.065,0.565,100,
1806,5.016666666666667,0.3,0.705,100,
1807,5.019444444444445,0.58,0.8,100,
1808,5.022222222222222,0.81,0.795,100,
1809,5.025,0.945,0.595,100,N
1810,5.027777777777778,0.92,0.235,100,
1811,5.030555555555556,0.775,-0.075,100,
1812,5.033333333333333,0.445,-0.19,100,
1813,5.036111111111111,0.02,-0.185,100,
1814,5.038888888888889,-0.295,-0.155,100,
1815,5.041666666666667,-0.445,-0.17,100,
1816,5.044444444444444,-0.47,-0.165,100,
1817,5.0472222222222225,-0.425,-0.155,100,
1818,5.05,-0.38,-0.145,100,
1819,5.052777777777778,-0.36,-0.155,100,
1820,5.055555555555555,-0.36,-0.19,100,
1821,5.058333333333334,-0.37,-0.2,100,
1822,5.061111111111111,-0.38,-0.195,100,
1823,5.063888888888889,-0.38,-0.175,100,
1824,5.066666666666666,-0.375,-0.175,100,
1825,5.069444444444445,-0.37,-0.18,100,
1826,5.072222222222222,-0.365,-0.185,100,
1827,5.075,-0.37,-0.2,100,
1828,5.0777777777777775,-0.385,-0.195,100,
1829,5.080555555555556,-0.385,-0.2,100,
1830,5.083333333333333,-0.375,-0.195,100,
1831,5.086111111111111,-0.37,-0.19,100,
1832,5.088888888888889,-0.37,-0.195,100,
1833,5.091666666666667,-0.385,-0.2,100,
1834,5.094444444444444,-0.395,-0.2,100,
1835,5.097222222222222,-0.385,-0.19,100,
1836,5.1,-0.385,-0.18,100,
1837,5.102777777777778,-0.39,-0.185,100,
1838,5.105555555555555,-0.385,-0.195,100,
1839,5.108333333333333,-0.395,-0.21,100,
1840,5.111111111111111,-0.41,-0.21,100,
1841,5.113888888888889,-0.4,-0.175,100,
1842,5.116666666666666,-0.395,-0.19,100,
1843,5.1194444444444445,-0.38,-0.185,100,
1844,5.122222222222222,-0.395,-0.185,100,
1845,5.125,-0.395,-0.195,100,
1846,5.127777777777778,-0.4,-0.2,100,
1847,5.1305555555555555,-0.4,-0.195,100,
1848,5.133333333333334,-0.395,-0.18,100,
1849,5.136111111111111,-0.39,-0.19,100,
1850,5.138888888888889,-0.39,-0.195,100,
1851,5.141666666666667,-0.395,-0.19,100,
1852,5.144444444444445,-0.405,-0.195,100,
1853,5.147222222222222,-0.39,-0.175,100,
1854,5.15,-0.385,-0.175,100,
1855,5.152777777777778,-0.375,-0.185,100,
1856,5.155555555555556,-0.375,-0.19,100,
1857,5.158333333333333,-0.38,-0.195,100,
1858,5.161111111111111,-0.39,-0.19,100,
1859,5.163888888888889,-0.385,-0.185,100,
1860,5.166666666666667,-0.37,-0.17,100,
1861,5.169444444444444,-0.37,-0.17,100,
1862,5.1722222222222225,-0.37,-0.19,100,
1863,5.175,-0.375,-0.2,100,
1864,5.177777777777778,-0.385,-0.2,100,
1865,5.180555555555555,-0.37,-0.18,100,
1866,5.183333333333334,-0.39,-0.175,100,
1867,5.186111111111111,-0.375,-0.195,100,
1868,5.188888888888889,-0.37,-0.175,100,
1869,5.191666666666666,-0.38,-0.19,100,
1870,5.194444444444445,-0.39,-0.19,100,
1871,5.197222222222222,-0.39,-0.19,100,
1872,5.2,-0.385,-0.18,100,
1873,5.2027777777777775,-0.375,-0.19,100,
1874,5.205555555555556,-0.375,-0.21,100,
1875,5.208333333333333,-0.385,-0.205,100,
1876,5.211111111111111,-0.395,-0.2,100,
1877,5.213888888888889,-0.39,-0.21,100,
1878,5.216666666666667,-0.385,-0.195,100,
1879,5.219444444444444,-0.375,-0.205,100,
1880,5.222222222222222,-0.38,-0.215,100,
1881,5.225,-0.385,-0.23,100,
1882,5.227777777777778,-0.39,-0.215,100,
1883,5.230555555555555,-0.38,-0.225,100,
1884,5.233333333333333,-0.38,-0.205,100,
1885,5.236111111111111,-0.37,-0.215,100,
1886,5.238888888888889,-0.37,-0.235,100,
1887,5.241666666666666,-0.365,-0.245,100,
1888,5.2444444444444445,-0.39,-0.245,100,
1889,5.247222222222222,-0.365,-0.24,100,
1890,5.25,-0.365,-0.245,100,
1891,5.252777777777778,-0.36,-0.235,100,
1892,5.2555555555555555,-0.375,-0.26,100,
1893,5.258333333333334,-0.38,-0.265,100,
1894,5.261111111111111,-0.4,-0.27,100,
1895,5.263888888888889,-0.39,-0.265,100,
1896,5.266666666666667,-0.375,-0.265,100,
1897,5.269444444444445,-0.375,-0.27,100,
1898,5.272222222222222,-0.37,-0.285,100,
1899,5.275,-0.385,-0.3,100,
1900,5.277777777777778,-0.39,-0.295,100,
1901,5.280555555555556,-0.39,-0.295,100,
1902,5.283333333333333,-0.39,-0.295,100,
1903,5.286111111111111,-0.39,-0.305,100,
1904,5.288888888888889,-0.375,-0.31,100,
1905,5.291666666666667,-0.385,-0.32,100,
1906,5.294444444444444,-0.395,-0.325,100,
1907,5.2972222222222225,-0.38,-0.32,100,
1908,5.3,-0.37,-0.31,100,
1909,5.302777777777778,-0.375,-0.32,100,
1910,5.305555555555555,-0.375,-0.32,100,
1911,5.308333333333334,-0.39,-0.325,100,
1912,5.311111111111111,-0.405,-0.31,100,
1913,5.313888888888889,-0.375,-0.28,100,
1914,5.316666666666666,-0.37,-0.28,100,
1915,5.319444444444445,-0.36,-0.28,100,
1916,5.322222222222222,-0.375,-0.265,100,
1917,5.325,-0.385,-0.265,100,
1918,5.3277777777777775,-0.38,-0.25,100,
1919,5.330555555555556,-0.37,-0.225,100,
1920,5.333333333333333,-0.36,-0.2,100,
1921,5.336111111111111,-0.345,-0.195,100,
1922,5.338888888888889,-0.345,-0.19,100,
1923,5.341666666666667,-0.33,-0.18,100,
1924,5.344444444444444,-0.33,-0.17,100,
1925,5.347222222222222,-0.315,-0.15,100,
1926,5.35,-0.31,-0.135,100,
1927,5.352777777777778,-0.295,-0.115,100,
1928,5.355555555555555,-0.285,-0.125,100,
1929,5.358333333333333,-0.285,-0.13,100,
1930,5.361111111111111,-0.295,-0.12,100,
1931,5.363888888888889,-0.28,-0.105,100,
1932,5.366666666666666,-0.27,-0.1,100,
1933,5.3694444444444445,-0.28,-0.1,100,
1934,5.372222222222222,-0.28,-0.1,100,
1935,5.375,-0.28,-0.115,100,
1936,5.377777777777778,-0.29,-0.12,100,
1937,5.3805555555555555,-0.29,-0.105,100,
1938,5.383333333333334,-0.28,-0.1,100,
1939,5.386111111111111,-0.275,-0.105,100,
1940,5.388888888888889,-0.28,-0.115,100,
1941,5.391666666666667,-0.285,-0.12,100,
1942,5.394444444444445,-0.29,-0.11,100,
1943,5.397222222222222,-0.29,-0.105,100,
1944,5.4,-0.28,-0.095,100,
1945,5.402777777777778,-0.28,-0.1,100,
1946,5.405555555555556,-0.285,-0.11,100,
1947,5.408333333333333,-0.29,-0.12,100,
1948,5.411111111111111,-0.3,-0.12,100,
1949,5.413888888888889,-0.295,-0.115,100,
1950,5.416666666666667,-0.285,-0.105,100,
1951,5.419444444444444,-0.28,-0.105,100,
1952,5.4222222222222225,-0.285,-0.095,100,
1953,5.425,-0.285,-0.105,100,
1954,5.427777777777778,-0.295,-0.12,100,
1955,5.430555555555555,-0.285,-0.115,100,
1956,5.433333333333334,-0.28,-0.105,100,
1957,5.436111111111111,-0.275,-0.11,100,
1958,5.438888888888889,-0.28,-0.125,100,
1959,5.441666666666666,-0.29,-0.115,100,
1960,5.444444444444445,-0.31,-0.13,100,
1961,5.447222222222222,-0.305,-0.115,100,
1962,5.45,-0.285,-0.095,100,
1963,5.4527777777777775,-0.27,-0.1,100,
1964,5.455555555555556,-0.27,-0.11,100,
1965,5.458333333333333,-0.275,-0.115,100,
1966,5.461111111111111,-0.285,-0.115,100,
1967,5.463888888888889,-0.285,-0.105,100,
1968,5.466666666666667,-0.27,-0.1,100,
1969,5.469444444444444,-0.265,-0.11,100,
1970,5.472222222222222,-0.265,-0.1,100,
1971,5.475,-0.265,-0.1,100,
1972,5.477777777777778,-0.28,-0.105,100,
1973,5.480555555555555,-0.265,-0.095,100,
1974,5.483333333333333,-0.245,-0.095,100,
1975,5.486111111111111,-0.235,-0.095,100,
1976,5.488888888888889,-0.235,-0.11,100,
1977,5.491666666666666,-0.25,-0.115,100,
1978,5.4944444444444445,-0.25,-0.11,100,
1979,5.497222222222222,-0.245,-0.105,100,
1980,5.5,-0.215,-0.105,100,
1981,5.502777777777778,-0.22,-0.115,100,
1982,5.5055555555555555,-0.245,-0.115,100,
1983,5.508333333333334,-0.255,-0.135,100,
1984,5.511111111111111,-0.23,-0.125,100,
1985,5.513888888888889,-0.205,-0.135,100,
1986,5.516666666666667,-0.21,-0.125,100,
1987,5.519444444444445,-0.22,-0.13,100,
1988,5.522222222222222,-0.23,-0.15,100,
1989,5.525,-0.24,-0.155,100,
1990,5.527777777777778,-0.24,-0.165,100,
1991,5.530555555555556,-0.245,-0.165,100,
1992,5.533333333333333,-0.25,-0.17,100,
1993,5.536111111111111,-0.27,-0.175,100,
1994,5.538888888888889,-0.285,-0.17,100,
1995,5.541666666666667,-0.315,-0.175,100,
1996,5.544444444444444,-0.32,-0.17,100,
1997,5.5472222222222225,-0.32,-0.165,100,
1998,5.55,-0.31,-0.16,100,
1999,5.552777777777778,-0.33,-0.16,100,
